5.0062	638.934
5.0864	637.208
5.1665	637.203
5.2467	639.595
5.3268	640.277
5.407	643.687
5.4872	645.22
5.5673	643.631
5.6475	645.917
5.7277	646.953
5.8079	647.901
5.888	648.084
5.9682	650.525
6.0484	650.698
6.1286	651.881
6.2088	652.827
6.289	654.405
6.3692	652.838
6.4494	654.528
6.5296	655.506
6.6098	657.576
6.69	660.273
6.7702	662.306
6.8504	663.911
6.9306	663.796
7.0109	664.414
7.0911	666.511
7.1713	669.358
7.2515	669.091
7.3318	669.645
7.412	670.36
7.4923	672.159
7.5725	673.743
7.6528	675.586
7.733	677.332
7.8133	679.002
7.8935	678.948
7.9738	681.513
8.0541	683.588
8.1344	686.37
8.2146	686.272
8.2949	690.675
8.3752	691.368
8.4555	692.928
8.5358	696.791
8.6161	699.036
8.6964	700.843
8.7767	706.858
8.857	708.842
8.9373	714.378
9.0176	713.021
9.098	716.862
9.1783	720.528
9.2586	722.758
9.339	727.712
9.4193	730.75
9.4997	734.488
9.58	739.572
9.6604	741.011
9.7407	742.93
9.8211	746.42
9.9015	751.024
9.9818	758.066
10.0622	761.407
10.1426	766.812
10.223	772.101
10.3034	776.076
10.3838	780.319
10.4642	783.622
10.5446	790.389
10.625	795.015
10.7055	799.189
10.7859	806.206
10.8663	810.113
10.9468	815.497
11.0272	821.15
11.1077	824.871
11.1881	828.604
11.2686	833.906
11.349	840.756
11.4295	843.917
11.51	848.153
11.5905	853.852
11.671	859.899
11.7514	863.825
11.8319	869.33
11.9125	874.003
11.993	878.454
12.0735	882.448
12.154	887.124
12.2345	889.885
12.3151	893.535
12.3956	899.006
12.4762	903.008
12.5567	905.733
12.6373	911.313
12.7178	914.105
12.7984	918.261
12.879	921.224
12.9596	925.178
13.0402	928.093
13.1208	931.45
13.2014	936.44
13.282	940.183
13.3626	940.308
13.4432	944.428
13.5239	947.998
13.6045	950.909
13.6851	954.566
13.7658	956.295
13.8465	958.755
13.9271	959.498
14.0078	965.089
14.0885	968.536
14.1692	967.167
14.2499	970.272
14.3306	971.841
14.4113	975.934
14.492	976.709
14.5727	977.117
14.6534	979.242
14.7342	981.445
14.8149	980.098
14.8957	983.283
14.9764	984.291
15.0572	983.479
15.138	984.854
15.2187	987.191
15.2995	987.052
15.3803	987.414
15.4611	988.113
15.542	987.349
15.6228	985.899
15.7036	987.614
15.7844	989.397
15.8653	990.228
15.9461	988.731
16.027	986.706
16.1079	986.911
16.1887	985.43
16.2696	984.357
16.3505	984.225
16.4314	981.93
16.5123	981.131
16.5932	979.243
16.6742	979.217
16.7551	978.316
16.836	977.246
16.917	973.884
16.9979	971.552
17.0789	972.141
17.1599	970.239
17.2409	969.065
17.3219	968.002
17.4029	965.338
17.4839	963.796
17.5649	964.771
17.6459	963.587
17.727	961.074
17.808	960.468
17.8891	958.542
17.9701	958.425
18.0512	956.496
18.1323	954.929
18.2134	955.482
18.2945	952.422
18.3756	951.673
18.4567	950.674
18.5378	950.96
18.619	949.593
18.7001	948.752
18.7813	947.696
18.8625	947.626
18.9436	945.74
19.0248	944.066
19.106	942.642
19.1872	940.554
19.2684	938.48
19.3497	938.723
19.4309	936.031
19.5121	935.298
19.5934	928.456
19.6747	926.815
19.7559	923.245
19.8372	923.908
19.9185	921.065
19.9998	917.786
20.0811	915.19
20.1624	915.194
20.2438	914.393
20.3251	913.399
20.4065	911.606
20.4878	915.183
20.5692	917.163
20.6506	922.773
20.732	934.325
20.8134	953.531
20.8948	985.734
20.9763	1043.577
21.0577	1120.017
21.1392	1204.47
21.2206	1263.032
21.3021	1293.036
21.3836	1289.831
21.4651	1274.301
21.5466	1244.842
21.6281	1191.46
21.7096	1111.718
21.7912	1020.579
21.8727	934.774
21.9543	870.978
22.0358	822.47
22.1174	791.699
22.199	771.703
22.2806	756.249
22.3622	743.142
22.4439	732.869
22.5255	722.163
22.6072	715.323
22.6888	707.998
22.7705	699.419
22.8522	693.668
22.9339	688.351
23.0156	683.905
23.0973	683.148
23.1791	681.566
23.2608	681.558
23.3426	685.963
23.4243	686.456
23.5061	688.256
23.5879	686.85
23.6697	683.829
23.7515	676.176
23.8334	667.423
23.9152	653.665
23.9971	639.669
24.0789	623.878
24.1608	609.307
24.2427	596.201
24.3246	583.073
24.4065	571.603
24.4885	562.08
24.5704	553.734
24.6524	545.755
24.7343	539.09
24.8163	531.478
24.8983	526.838
24.9803	521.024
25.0624	516.55
25.1444	511.081
25.2264	507.846
25.3085	503.299
25.3906	499.078
25.4727	494.645
25.5548	491.007
25.6369	487.501
25.719	483.902
25.8011	479.476
25.8833	477.033
25.9655	473.473
26.0476	470.859
26.1298	467.988
26.212	464.944
26.2943	463.202
26.3765	459.548
26.4588	457.15
26.541	454.562
26.6233	452.086
26.7056	450.177
26.7879	447.195
26.8702	445.217
26.9525	443.093
27.0349	441.318
27.1173	438.685
27.1996	437.477
27.282	435.362
27.3644	434.196
27.4469	432.88
27.5293	431.873
27.6117	428.773
27.6942	427.669
27.7767	427.127
27.8592	425.558
27.9417	423.03
28.0242	421.662
28.1067	420.043
28.1893	419.261
28.2719	417.643
28.3544	416.789
28.437	416.226
28.5197	414.248
28.6023	413.591
28.6849	413.715
28.7676	411.683
28.8503	411.535
28.9329	411.037
29.0156	408.629
29.0984	408.855
29.1811	408.227
29.2638	408.354
29.3466	407.568
29.4294	407.453
29.5122	407.018
29.595	407.021
29.6778	407.053
29.7607	406.271
29.8435	405.467
29.9264	405.742
30.0093	404.979
30.0922	403.326
30.1751	401.659
30.2581	400.246
30.341	400.242
30.424	398.815
30.507	398.126
30.59	396.938
30.673	395.532
30.7561	395.067
30.8391	393.574
30.9222	393.303
31.0053	392.684
31.0884	392.059
31.1715	392.694
31.2547	390.917
31.3378	389.964
31.421	389.875
31.5042	388.442
31.5874	386.884
31.6706	387.171
31.7539	386.543
31.8371	385.701
31.9204	385.594
32.0037	383.154
32.087	383.453
32.1703	383.631
32.2537	381.693
32.337	381.205
32.4204	379.975
32.5038	379.371
32.5872	378.287
32.6707	376.966
32.7541	375.616
32.8376	374.888
32.9211	374.405
33.0046	372.537
33.0881	371.231
33.1716	370.119
33.2552	369.337
33.3388	368.006
33.4224	367.262
33.506	366.15
33.5896	364.208
33.6733	363.29
33.7569	363.104
33.8406	361.954
33.9243	359.788
34.0081	358.132
34.0918	357.657
34.1756	355.512
34.2593	354.08
34.3431	352.436
34.427	350.862
34.5108	350.997
34.5947	349.902
34.6785	348.146
34.7624	347.306
34.8463	345.378
34.9303	344.295
35.0142	343.347
35.0982	342.504
35.1822	340.802
35.2662	340.111
35.3502	337.998
35.4343	336.983
35.5184	335.995
35.6025	336.295
35.6866	337.293
35.7707	337.611
35.8548	339.296
35.939	340.961
36.0232	342.569
36.1074	342.793
36.1916	342.265
36.2759	341.065
36.3602	339.424
36.4445	335.189
36.5288	329.597
36.6131	325.285
36.6975	322.057
36.7818	320.111
36.8662	318.599
36.9506	316.458
37.0351	314.857
37.1195	312.99
37.204	312.517
37.2885	311.355
37.373	309.658
37.4576	309.839
37.5421	308.575
37.6267	307.344
37.7113	307.889
37.7959	307.465
37.8806	306.044
37.9653	306.274
38.05	304.327
38.1347	303.415
38.2194	302.014
38.3041	301.678
38.3889	301.337
38.4737	299.695
38.5585	298.138
38.6434	297.387
38.7283	297.033
38.8131	296.815
38.898	297.469
38.983	298.239
39.0679	298.19
39.1529	297.905
39.2379	298.776
39.3229	299.709
39.408	299.975
39.493	300.177
39.5781	300.406
39.6632	300.067
39.7484	297.586
39.8335	296.186
39.9187	294.434
40.0039	291.297
40.0891	286.711
40.1744	279.285
40.2597	271.593
40.345	267.879
40.4303	263.364
40.5156	257.386
40.601	250.671
40.6864	248.153
40.7718	216.665
40.8572	0.0
