5.0062	430.876
5.0864	432.787
5.1665	432.678
5.2467	433.027
5.3268	433.783
5.407	435.861
5.4872	434.882
5.5673	433.6
5.6475	435.489
5.7277	435.571
5.8079	436.13
5.888	435.328
5.9682	436.493
6.0484	437.208
6.1286	437.874
6.2088	437.62
6.289	435.824
6.3692	436.616
6.4494	436.739
6.5296	437.872
6.6098	438.149
6.69	436.912
6.7702	438.088
6.8504	440.621
6.9306	439.372
7.0109	438.49
7.0911	439.085
7.1713	440.159
7.2515	440.728
7.3318	439.16
7.412	440.033
7.4923	438.384
7.5725	439.858
7.6528	440.149
7.733	440.856
7.8133	440.43
7.8935	443.542
7.9738	442.375
8.0541	442.348
8.1344	441.779
8.2146	442.951
8.2949	444.537
8.3752	445.05
8.4555	445.42
8.5358	445.47
8.6161	446.445
8.6964	446.158
8.7767	447.287
8.857	448.196
8.9373	449.447
9.0176	451.698
9.098	452.088
9.1783	452.615
9.2586	451.403
9.339	454.263
9.4193	455.166
9.4997	457.081
9.58	456.803
9.6604	457.171
9.7407	458.319
9.8211	456.89
9.9015	460.09
9.9818	461.904
10.0622	464.972
10.1426	464.636
10.223	466.262
10.3034	467.671
10.3838	468.675
10.4642	471.782
10.5446	472.725
10.625	473.568
10.7055	473.515
10.7859	475.448
10.8663	476.57
10.9468	478.494
11.0272	478.615
11.1077	480.291
11.1881	482.235
11.2686	484.329
11.349	485.108
11.4295	486.102
11.51	487.74
11.5905	489.216
11.671	490.869
11.7514	491.798
11.8319	492.739
11.9125	495.161
11.993	497.704
12.0735	496.932
12.154	497.98
12.2345	498.576
12.3151	499.988
12.3956	501.102
12.4762	503.75
12.5567	503.975
12.6373	505.453
12.7178	505.867
12.7984	506.661
12.879	508.139
12.9596	508.863
13.0402	507.703
13.1208	510.608
13.2014	511.648
13.282	511.899
13.3626	511.742
13.4432	513.516
13.5239	512.71
13.6045	512.644
13.6851	513.887
13.7658	515.38
13.8465	515.99
13.9271	514.609
14.0078	515.097
14.0885	515.587
14.1692	515.988
14.2499	516.798
14.3306	517.781
14.4113	516.954
14.492	518.131
14.5727	517.809
14.6534	518.827
14.7342	517.256
14.8149	517.47
14.8957	517.889
14.9764	516.579
15.0572	516.964
15.138	517.07
15.2187	515.597
15.2995	514.504
15.3803	515.507
15.4611	514.676
15.542	514.586
15.6228	513.171
15.7036	514.212
15.7844	512.753
15.8653	511.353
15.9461	511.286
16.027	509.904
16.1079	509.584
16.1887	508.253
16.2696	507.203
16.3505	505.979
16.4314	505.412
16.5123	504.472
16.5932	502.833
16.6742	502.615
16.7551	500.741
16.836	499.576
16.917	499.127
16.9979	497.054
17.0789	496.143
17.1599	494.206
17.2409	492.422
17.3219	491.53
17.4029	490.332
17.4839	488.242
17.5649	486.158
17.6459	484.997
17.727	484.013
17.808	484.174
17.8891	482.964
17.9701	481.406
18.0512	480.12
18.1323	478.716
18.2134	476.876
18.2945	476.053
18.3756	473.809
18.4567	472.664
18.5378	472.157
18.619	472.222
18.7001	470.166
18.7813	468.248
18.8625	467.047
18.9436	466.01
19.0248	464.307
19.106	463.97
19.1872	462.341
19.2684	460.503
19.3497	458.599
19.4309	457.18
19.5121	455.46
19.5934	452.943
19.6747	451.955
19.7559	450.492
19.8372	448.482
19.9185	447.613
19.9998	446.776
20.0811	443.681
20.1624	441.756
20.2438	440.447
20.3251	439.833
20.4065	439.513
20.4878	438.234
20.5692	437.707
20.6506	437.579
20.732	437.274
20.8134	438.367
20.8948	440.781
20.9763	446.86
21.0577	459.368
21.1392	485.708
21.2206	538.708
21.3021	618.253
21.3836	697.921
21.4651	753.235
21.5466	779.316
21.6281	775.187
21.7096	715.807
21.7912	608.349
21.8727	505.364
21.9543	442.657
22.0358	412.969
22.1174	398.83
22.199	391.081
22.2806	384.921
22.3622	380.144
22.4439	376.764
22.5255	372.432
22.6072	368.436
22.6888	366.221
22.7705	362.706
22.8522	359.783
22.9339	356.179
23.0156	353.04
23.0973	349.954
23.1791	347.964
23.2608	345.855
23.3426	344.127
23.4243	343.605
23.5061	345.223
23.5879	349.131
23.6697	355.636
23.7515	363.052
23.8334	365.411
23.9152	366.357
23.9971	362.043
24.0789	353.632
24.1608	343.05
24.2427	329.911
24.3246	318.753
24.4065	311.082
24.4885	305.958
24.5704	302.341
24.6524	299.839
24.7343	296.824
24.8163	294.513
24.8983	291.982
24.9803	289.54
25.0624	287.266
25.1444	285.413
25.2264	282.886
25.3085	281.829
25.3906	280.278
25.4727	278.222
25.5548	275.686
25.6369	274.222
25.719	272.026
25.8011	270.291
25.8833	268.4
25.9655	266.704
26.0476	265.31
26.1298	263.802
26.212	261.738
26.2943	260.476
26.3765	259.461
26.4588	258.641
26.541	257.221
26.6233	256.428
26.7056	255.561
26.7879	254.298
26.8702	252.076
26.9525	251.73
27.0349	251.681
27.1173	249.927
27.1996	248.337
27.282	247.525
27.3644	245.466
27.4469	245.573
27.5293	244.397
27.6117	243.127
27.6942	242.459
27.7767	241.655
27.8592	240.535
27.9417	239.773
28.0242	238.847
28.1067	238.385
28.1893	237.537
28.2719	235.199
28.3544	234.607
28.437	234.106
28.5197	233.2
28.6023	232.676
28.6849	231.585
28.7676	231.378
28.8503	230.404
28.9329	230.244
29.0156	229.377
29.0984	228.086
29.1811	227.655
29.2638	226.568
29.3466	225.588
29.4294	225.051
29.5122	225.06
29.595	224.638
29.6778	225.271
29.7607	225.47
29.8435	225.663
29.9264	225.632
30.0093	225.991
30.0922	225.672
30.1751	224.069
30.2581	222.865
30.341	221.511
30.424	220.036
30.507	219.302
30.59	218.464
30.673	216.871
30.7561	216.612
30.8391	215.709
30.9222	216.164
31.0053	215.296
31.0884	214.651
31.1715	213.291
31.2547	213.312
31.3378	212.34
31.421	211.647
31.5042	211.032
31.5874	209.506
31.6706	208.545
31.7539	208.978
31.8371	207.963
31.9204	207.649
32.0037	206.676
32.087	207.5
32.1703	206.044
32.2537	205.378
32.337	204.645
32.4204	203.89
32.5038	204.133
32.5872	203.687
32.6707	202.494
32.7541	202.889
32.8376	201.975
32.9211	201.078
33.0046	200.282
33.0881	200.273
33.1716	199.241
33.2552	198.358
33.3388	197.954
33.4224	196.979
33.506	196.205
33.5896	195.416
33.6733	194.655
33.7569	193.783
33.8406	192.72
33.9243	192.892
34.0081	191.993
34.0918	191.356
34.1756	190.553
34.2593	190.075
34.3431	189.427
34.427	188.823
34.5108	187.795
34.5947	186.017
34.6785	186.671
34.7624	185.978
34.8463	184.595
34.9303	184.144
35.0142	183.709
35.0982	182.655
35.1822	181.915
35.2662	180.87
35.3502	180.443
35.4343	178.559
35.5184	178.219
35.6025	177.482
35.6866	175.894
35.7707	177.018
35.8548	178.312
35.939	180.486
36.0232	183.786
36.1074	187.169
36.1916	187.89
36.2759	187.657
36.3602	184.731
36.4445	179.861
36.5288	175.796
36.6131	172.693
36.6975	170.765
36.7818	169.235
36.8662	169.18
36.9506	168.424
37.0351	167.362
37.1195	166.654
37.204	165.998
37.2885	165.26
37.373	165.063
37.4576	164.621
37.5421	163.729
37.6267	162.938
37.7113	162.654
37.7959	163.257
37.8806	163.217
37.9653	162.675
38.05	163.228
38.1347	162.152
38.2194	161.959
38.3041	162.529
38.3889	161.458
38.4737	160.5
38.5585	159.588
38.6434	159.568
38.7283	159.341
38.8131	159.007
38.898	158.171
38.983	159.133
39.0679	158.672
39.1529	158.935
39.2379	159.33
39.3229	160.529
39.408	161.015
39.493	162.338
39.5781	163.763
39.6632	164.72
39.7484	165.221
39.8335	163.151
39.9187	162.148
40.0039	159.149
40.0891	155.817
40.1744	151.333
40.2597	148.044
40.345	146.546
40.4303	145.693
40.5156	143.861
40.601	141.302
40.6864	141.802
40.7718	124.207
40.8572	0.0
