TITLE	ldpe sbc 818 0
DATA TYPE	INFRARED SPECTRUM
ORIGIN	JASCO
OWNER	
DATE	21/06/10
TIME	12:03:47
SPECTROMETER/DATA SYSTEM	
LOCALE	1045
RESOLUTION	
DELTAX	0,964233
XUNITS	1/CM
YUNITS	ABSORBANCE
FIRSTX	  399,1927
LASTX	 4000,6047
NPOINTS	    3736
FIRSTY	     0,01047
MAXY	     0,53909
MINY	     0,00100
XYDATA
399,1927	0,0104689
400,1569	0,022843
401,1211	0,0243952
402,0854	0,0199139
403,0496	0,0143731
404,0138	0,0108682
404,9781	0,010618
405,9423	0,013493
406,9065	0,0184912
407,8708	0,0240374
408,8350	0,0281914
409,7992	0,0290656
410,7635	0,0257043
411,7277	0,0190322
412,6919	0,0117846
413,6562	0,007072
414,6204	0,0068538
415,5846	0,0114769
416,5489	0,0199287
417,5131	0,0299943
418,4773	0,0384445
419,4416	0,0423034
420,4058	0,0407992
421,3700	0,0353586
422,3343	0,0277575
423,2985	0,0192277
424,2627	0,0109044
425,2270	0,00428406
426,1912	0,001
427,1554	0,00216994
428,1197	0,0079101
429,0839	0,0172436
430,0481	0,028252
431,0124	0,0384128
431,9766	0,045225
432,9408	0,0470309
433,9051	0,0436778
434,8693	0,0367144
435,8335	0,0289736
436,7978	0,0234911
437,7620	0,0220992
438,7262	0,0245589
439,6905	0,0288668
440,6547	0,0324702
441,6189	0,0336465
442,5832	0,0324065
443,5474	0,0303845
444,5116	0,0295422
445,4759	0,0305131
446,4401	0,0320063
447,4043	0,0317614
448,3686	0,0282143
449,3328	0,0217057
450,2970	0,0145087
451,2613	0,00962679
452,2255	0,00909133
453,1897	0,0128881
454,1540	0,0191079
455,1182	0,024987
456,0824	0,0281651
457,0467	0,0276884
458,0109	0,0243622
458,9751	0,0201321
459,9394	0,0168196
460,9036	0,0151979
461,8678	0,0149769
462,8321	0,0153559
463,7963	0,0155834
464,7605	0,0152858
465,7248	0,0145488
466,6890	0,0137883
467,6532	0,0134853
468,6175	0,0139199
469,5817	0,0150207
470,5459	0,01637
471,5102	0,0173655
472,4744	0,017517
473,4386	0,0167593
474,4029	0,015551
475,3671	0,0146524
476,3313	0,014745
477,2956	0,0161368
478,2598	0,0186539
479,2240	0,0217026
480,1883	0,0244731
481,1525	0,0262433
482,1167	0,0266886
483,0810	0,0260573
484,0452	0,0250692
485,0094	0,0245039
485,9737	0,0246908
486,9379	0,0252826
487,9021	0,0255212
488,8664	0,0248175
489,8306	0,0232393
490,7948	0,0215792
491,7591	0,0209177
492,7233	0,0219022
493,6875	0,0242021
494,6518	0,0265872
495,6160	0,0276847
496,5802	0,0269017
497,5445	0,0248077
498,5087	0,0227238
499,4729	0,0218652
500,4372	0,0226034
501,4014	0,0242777
502,3656	0,0256753
503,3299	0,0258583
504,2941	0,0247156
505,2583	0,0228562
506,2226	0,0210513
507,1868	0,0197603
508,1510	0,019077
509,1153	0,0189905
510,0795	0,0195886
511,0437	0,0209633
512,0080	0,0229274
512,9722	0,0248722
513,9365	0,0259914
514,9007	0,0257661
515,8649	0,024357
516,8292	0,0225778
517,7934	0,0214074
518,7576	0,0213643
519,7219	0,0222431
520,6861	0,0234057
521,6503	0,0242792
522,6146	0,0246036
523,5788	0,0243355
524,5430	0,0234475
525,5073	0,0218912
526,4715	0,0197796
527,4357	0,0175639
528,4000	0,0159438
529,3642	0,0155493
530,3284	0,0166504
531,2927	0,0190708
532,2569	0,0223125
533,2211	0,0257863
534,1854	0,0289967
535,1496	0,0315802
536,1138	0,0332448
537,0781	0,0337629
538,0423	0,0330925
539,0065	0,0315223
539,9708	0,0296613
540,9350	0,0282177
541,8992	0,0277007
542,8635	0,0282324
543,8277	0,0295576
544,7919	0,0312075
545,7562	0,0327047
546,7204	0,0337076
547,6846	0,0340621
548,6489	0,0337925
549,6131	0,0330717
550,5773	0,0321709
551,5416	0,0313713
552,5058	0,0308548
553,4700	0,0306354
554,4343	0,0305865
555,3985	0,0305593
556,3627	0,0305212
557,3270	0,0306195
558,2912	0,0311106
559,2554	0,0321853
560,2197	0,0337951
561,1839	0,0355866
562,1481	0,0369972
563,1124	0,0374819
564,0766	0,036771
565,0408	0,0350233
566,0051	0,0327823
566,9693	0,0307496
567,9335	0,0294878
568,8978	0,0291986
569,8620	0,0296859
570,8262	0,0305132
571,7905	0,0312517
572,7547	0,0316771
573,7189	0,0318331
574,6832	0,0319587
575,6474	0,0323233
576,6116	0,0330482
577,5759	0,0340091
578,5401	0,0348813
579,5043	0,0353011
580,4686	0,0350511
581,4328	0,0341709
582,3970	0,0329394
583,3613	0,0317386
584,3255	0,0308773
585,2897	0,0304758
586,2540	0,0304631
587,2182	0,0306594
588,1824	0,0308767
589,1467	0,0309963
590,1109	0,0310136
591,0751	0,0310504
592,0394	0,0313133
593,0036	0,0319825
593,9678	0,0330718
594,9321	0,0343531
595,8963	0,0354228
596,8605	0,0358946
597,8248	0,0356106
598,7890	0,0347306
599,7532	0,0336276
600,7175	0,0326597
601,6817	0,0319854
602,6459	0,0315508
603,6102	0,0312266
604,5744	0,0309583
605,5386	0,0308002
606,5029	0,0308247
607,4671	0,031012
608,4313	0,0312329
609,3956	0,0313404
610,3598	0,0312809
611,3240	0,0311208
612,2883	0,0309622
613,2525	0,0308314
614,2167	0,0306443
615,1810	0,0302828
616,1452	0,0297218
617,1094	0,0290976
618,0737	0,028646
619,0379	0,0285515
620,0021	0,0288414
620,9664	0,0294126
621,9306	0,0301433
622,8948	0,0309741
623,8591	0,0318909
624,8233	0,0328282
625,7875	0,0335913
626,7518	0,0338956
627,7160	0,0335351
628,6802	0,0325688
629,6445	0,031371
630,6087	0,0304807
631,5729	0,0303304
632,5372	0,0310201
633,5014	0,0322672
634,4656	0,0335623
635,4299	0,0344422
636,3941	0,0347152
637,3583	0,0345025
638,3226	0,0340996
639,2868	0,0337871
640,2510	0,033721
641,2153	0,033934
642,1795	0,0343927
643,1437	0,0350365
644,1080	0,0357746
645,0722	0,0364686
646,0364	0,0369446
647,0007	0,0370437
647,9649	0,0366842
648,9291	0,0359008
649,8934	0,0348397
650,8576	0,0337138
651,8218	0,0327429
652,7861	0,0320977
653,7503	0,0318529
654,7145	0,0319545
655,6788	0,0322347
656,6430	0,0324973
657,6072	0,032642
658,5715	0,0327332
659,5357	0,0329476
660,4999	0,0334208
661,4642	0,0341107
662,4284	0,0348147
663,3926	0,035318
664,3569	0,0355189
665,3211	0,0354575
666,2853	0,0353021
667,2496	0,0353161
668,2138	0,0356856
669,1780	0,0362311
670,1423	0,0365555
671,1065	0,036485
672,0707	0,0360714
673,0350	0,0354069
673,9992	0,0345784
674,9634	0,0337125
675,9277	0,0330092
676,8919	0,0326955
677,8561	0,0329119
678,8204	0,0336259
679,7846	0,0346353
680,7488	0,0356518
681,7131	0,0364274
682,6773	0,0368707
683,6415	0,0370801
684,6058	0,0372658
685,5700	0,0376154
686,5342	0,0381899
687,4985	0,0389085
688,4627	0,0396243
689,4269	0,0402302
690,3912	0,0407156
691,3554	0,0411353
692,3196	0,0415294
693,2839	0,041869
694,2481	0,0420794
695,2123	0,0421269
696,1766	0,0420996
697,1408	0,0422057
698,1050	0,0426732
699,0693	0,0436184
700,0335	0,0449847
700,9977	0,0466099
701,9620	0,0483866
702,9262	0,0504012
703,8904	0,0529387
704,8547	0,0563299
705,8189	0,060746
706,7831	0,0661112
707,7474	0,0722482
708,7116	0,0792116
709,6758	0,0875847
710,6401	0,0984705
711,6043	0,113052
712,5685	0,131843
713,5328	0,153948
714,4970	0,176751
715,4612	0,196314
716,4255	0,208528
717,3897	0,210641
718,3539	0,202442
719,3182	0,186375
720,2824	0,166425
721,2466	0,146466
722,2109	0,129102
723,1751	0,115501
724,1393	0,105891
725,1036	0,100054
726,0678	0,0974884
727,0320	0,0972596
727,9963	0,0978845
728,9605	0,0975553
729,9247	0,094742
730,8890	0,08884
731,8532	0,0804187
732,8174	0,0708972
733,7817	0,0618713
734,7459	0,0544967
735,7101	0,0492072
736,6744	0,0458049
737,6386	0,0437647
738,6028	0,0425458
739,5671	0,0417662
740,5313	0,0412144
741,4955	0,04077
742,4598	0,0403336
743,4240	0,0398172
744,3882	0,0391791
745,3525	0,0384535
746,3167	0,0377385
747,2809	0,0371476
748,2452	0,0367573
749,2094	0,0365833
750,1736	0,0365886
751,1379	0,0367093
752,1021	0,0368744
753,0663	0,0370137
754,0306	0,0370611
754,9948	0,0369671
755,9590	0,0367196
756,9233	0,0363581
757,8875	0,0359655
758,8517	0,0356362
759,8160	0,0354366
760,7802	0,0353826
761,7444	0,0354466
762,7087	0,035584
763,6729	0,0357567
764,6371	0,035936
765,6014	0,0360871
766,5656	0,0361531
767,5298	0,0360603
768,4941	0,0357521
769,4583	0,0352349
770,4225	0,0346054
771,3868	0,0340322
772,3510	0,0336926
773,3152	0,0336909
774,2795	0,0340046
775,2437	0,0344902
776,2079	0,0349496
777,1722	0,0352219
778,1364	0,0352476
779,1006	0,0350714
780,0649	0,0347913
781,0291	0,0344928
781,9933	0,0342118
782,9576	0,0339429
783,9218	0,0336727
784,8860	0,0334102
785,8503	0,0331929
786,8145	0,0330721
787,7787	0,0330933
788,7430	0,0332785
789,7072	0,0336113
790,6714	0,0340275
791,6357	0,0344189
792,5999	0,0346658
793,5641	0,0346923
794,5284	0,0345154
795,4926	0,0342476
796,4568	0,0340363
797,4211	0,0339681
798,3853	0,0340014
799,3495	0,0339801
800,3138	0,0337331
801,2780	0,0331994
802,2422	0,0324972
803,2065	0,0318838
804,1707	0,0316238
805,1349	0,0318391
806,0992	0,0324322
807,0634	0,0331276
808,0276	0,0336085
808,9919	0,0336711
809,9561	0,0333086
810,9203	0,0326818
811,8846	0,0320028
812,8488	0,0314091
813,8130	0,0309068
814,7773	0,0304141
815,7415	0,0298645
816,7057	0,0292944
817,6700	0,0288475
818,6342	0,0286913
819,5984	0,0289042
820,5627	0,0294154
821,5269	0,0300393
822,4911	0,0305752
823,4554	0,0308993
824,4196	0,0309943
825,3839	0,0309112
826,3481	0,0307148
827,3123	0,0304639
828,2766	0,0302371
829,2408	0,0301596
830,2050	0,030374
831,1693	0,0309474
832,1335	0,0317713
833,0977	0,0325467
834,0620	0,0329051
835,0262	0,0326181
835,9904	0,031768
836,9547	0,0307529
837,9189	0,0300991
838,8831	0,0301795
839,8474	0,0309998
840,8116	0,0321815
841,7758	0,0331558
842,7401	0,0334607
843,7043	0,0329703
844,6685	0,0319308
845,6328	0,0308027
846,5970	0,0300206
847,5612	0,0298093
848,5255	0,0301348
849,4897	0,0307814
850,4539	0,0314832
851,4182	0,0320357
852,3824	0,0323444
853,3466	0,0324178
854,3109	0,032332
855,2751	0,0321935
856,2393	0,0321061
857,2036	0,0321409
858,1678	0,0323138
859,1320	0,0325778
860,0963	0,0328408
861,0605	0,0330041
862,0247	0,0330064
862,9890	0,0328507
863,9532	0,0326037
864,9174	0,0323665
865,8817	0,0322312
866,8459	0,032241
867,8101	0,0323694
868,7744	0,0325276
869,7386	0,0325995
870,7028	0,0324937
871,6671	0,0321909
872,6313	0,0317662
873,5955	0,0313701
874,5598	0,0311718
875,5240	0,0312846
876,4882	0,0317094
877,4525	0,0323237
878,4167	0,0329277
879,3809	0,0333267
880,3452	0,0334163
881,3094	0,03323
882,2736	0,0329244
883,2379	0,0327059
884,2021	0,0327333
885,1663	0,0330458
886,1306	0,0335461
887,0948	0,0340482
888,0590	0,0343634
889,0233	0,0343858
889,9875	0,0341365
890,9517	0,0337419
891,9160	0,0333624
892,8802	0,0331121
893,8444	0,0330163
894,8087	0,0330229
895,7729	0,0330542
896,7371	0,0330624
897,7014	0,0330538
898,6656	0,0330712
899,6298	0,0331562
900,5941	0,03332
901,5583	0,0335422
902,5225	0,0337919
903,4868	0,0340475
904,4510	0,0342966
905,4152	0,0345181
906,3795	0,0346666
907,3437	0,034679
908,3079	0,0345073
909,2722	0,0341579
910,2364	0,0337077
911,2006	0,0332831
912,1649	0,0330094
913,1291	0,0329605
914,0933	0,0331325
915,0576	0,0334506
916,0218	0,0338007
916,9860	0,0340697
917,9503	0,0341756
918,9145	0,0340822
919,8787	0,0338013
920,8430	0,0333904
921,8072	0,0329445
922,7714	0,0325757
923,7357	0,0323803
924,6999	0,0324022
925,6641	0,0326154
926,6284	0,0329349
927,5926	0,0332537
928,5568	0,0334849
929,5211	0,0335879
930,4853	0,0335683
931,4495	0,0334585
932,4138	0,0332942
933,3780	0,0331038
934,3422	0,0329083
935,3065	0,032722
936,2707	0,0325494
937,2349	0,0323804
938,1992	0,0321982
939,1634	0,0319994
940,1276	0,0318122
941,0919	0,0316903
942,0561	0,0316766
943,0203	0,0317578
943,9846	0,031848
944,9488	0,0318264
945,9130	0,0316125
946,8773	0,0312319
947,8415	0,030825
948,8057	0,0305765
949,7700	0,0306011
950,7342	0,0308587
951,6984	0,0311721
952,6627	0,0313354
953,6269	0,0312342
954,5911	0,0308976
955,5554	0,0304677
956,5196	0,0301155
957,4838	0,0299581
958,4481	0,0300206
959,4123	0,0302533
960,3765	0,0305764
961,3408	0,0309137
962,3050	0,031201
963,2692	0,0313847
964,2335	0,0314293
965,1977	0,0313389
966,1619	0,0311686
967,1262	0,0310064
968,0904	0,0309259
969,0546	0,0309393
970,0189	0,0309868
970,9831	0,0309753
971,9473	0,0308413
972,9116	0,0305959
973,8758	0,0303195
974,8400	0,0301134
975,8043	0,0300423
976,7685	0,0301043
977,7327	0,030242
978,6970	0,0303807
979,6612	0,0304643
980,6254	0,0304696
981,5897	0,0304011
982,5539	0,0302822
983,5181	0,0301515
984,4824	0,0300627
985,4466	0,030076
986,4108	0,0302335
987,3751	0,0305325
988,3393	0,0309162
989,3035	0,0312943
990,2678	0,0315837
991,2320	0,031742
992,1962	0,0317728
993,1605	0,0317054
994,1247	0,0315701
995,0889	0,0313893
996,0532	0,0311869
997,0174	0,0309977
997,9816	0,0308617
998,9459	0,0308056
999,9101	0,0308293
1000,8743	0,030915
1001,8386	0,0310482
1002,8028	0,0312235
1003,7670	0,0314193
1004,7313	0,0315598
1005,6955	0,0315121
1006,6597	0,0311511
1007,6240	0,0304662
1008,5882	0,0296326
1009,5524	0,0289708
1010,5167	0,0287959
1011,4809	0,0292405
1012,4451	0,0301651
1013,4094	0,0312231
1014,3736	0,0320464
1015,3378	0,0324349
1016,3021	0,0324307
1017,2663	0,0322428
1018,2305	0,0320931
1019,1948	0,0320948
1020,1590	0,03223
1021,1232	0,0324121
1022,0875	0,0325664
1023,0517	0,032669
1024,0160	0,032731
1024,9802	0,0327606
1025,9445	0,032743
1026,9087	0,0326509
1027,8729	0,0324713
1028,8372	0,0322254
1029,8014	0,0319681
1030,7656	0,0317703
1031,7299	0,0316964
1032,6941	0,0317851
1033,6583	0,0320369
1034,6226	0,032412
1035,5868	0,0328399
1036,5510	0,0332394
1037,5153	0,0335447
1038,4795	0,0337238
1039,4437	0,0337829
1040,4080	0,0337548
1041,3722	0,0336794
1042,3364	0,0335859
1043,3007	0,0334862
1044,2649	0,0333804
1045,2291	0,0332687
1046,1934	0,0331618
1047,1576	0,0330803
1048,1218	0,0330425
1049,0861	0,0330477
1050,0503	0,0330691
1051,0145	0,0330633
1051,9788	0,0329927
1052,9430	0,0328444
1053,9072	0,0326307
1054,8715	0,0323743
1055,8357	0,0320919
1056,7999	0,0317949
1057,7642	0,031505
1058,7284	0,0312634
1059,6926	0,0311163
1060,6569	0,0310776
1061,6211	0,0311026
1062,5853	0,0311022
1063,5496	0,031001
1064,5138	0,0307982
1065,4780	0,0305789
1066,4423	0,0304577
1067,4065	0,0304922
1068,3707	0,0306362
1069,3350	0,0307751
1070,2992	0,0308204
1071,2634	0,0307876
1072,2277	0,0307919
1073,1919	0,0309572
1074,1561	0,0313071
1075,1204	0,0317207
1076,0846	0,0319955
1077,0488	0,0319756
1078,0131	0,0316586
1078,9773	0,031208
1079,9415	0,0308633
1080,9058	0,0308084
1081,8700	0,0310766
1082,8342	0,0315434
1083,7985	0,0320006
1084,7627	0,0322619
1085,7269	0,0322423
1086,6912	0,0319777
1087,6554	0,0315855
1088,6196	0,0311982
1089,5839	0,030907
1090,5481	0,0307391
1091,5123	0,030673
1092,4766	0,0306708
1093,4408	0,0307048
1094,4050	0,0307624
1095,3693	0,0308342
1096,3335	0,0309006
1097,2977	0,0309317
1098,2620	0,0309021
1099,2262	0,030808
1100,1904	0,0306736
1101,1547	0,0305409
1102,1189	0,0304518
1103,0831	0,0304332
1104,0474	0,0304936
1105,0116	0,0306262
1105,9758	0,0308136
1106,9401	0,0310283
1107,9043	0,0312315
1108,8685	0,0313777
1109,8328	0,031427
1110,7970	0,0313622
1111,7612	0,0312012
1112,7255	0,0309958
1113,6897	0,0308141
1114,6539	0,030714
1115,6182	0,0307197
1116,5824	0,0308151
1117,5466	0,0309578
1118,5109	0,031106
1119,4751	0,0312421
1120,4393	0,0313783
1121,4036	0,0315395
1122,3678	0,0317376
1123,3320	0,0319541
1124,2963	0,0321443
1125,2605	0,0322602
1126,2247	0,0322766
1127,1890	0,0322042
1128,1532	0,0320821
1129,1174	0,0319588
1130,0817	0,0318725
1131,0459	0,0318396
1132,0101	0,0318532
1132,9744	0,0318882
1133,9386	0,0319118
1134,9028	0,031897
1135,8671	0,0318371
1136,8313	0,0317508
1137,7955	0,0316725
1138,7598	0,0316306
1139,7240	0,0316279
1140,6882	0,0316415
1141,6525	0,0316451
1142,6167	0,0316386
1143,5809	0,0316587
1144,5452	0,0317587
1145,5094	0,0319662
1146,4736	0,0322521
1147,4379	0,0325345
1148,4021	0,0327212
1149,3663	0,0327625
1150,3306	0,0326795
1151,2948	0,0325502
1152,2590	0,0324651
1153,2233	0,0324826
1154,1875	0,03261
1155,1517	0,032813
1156,1160	0,0330418
1157,0802	0,0332529
1158,0444	0,0334185
1159,0087	0,0335277
1159,9729	0,0335828
1160,9371	0,0335982
1161,9014	0,0335973
1162,8656	0,0336067
1163,8298	0,0336466
1164,7941	0,0337225
1165,7583	0,0338222
1166,7225	0,0339207
1167,6868	0,0339906
1168,6510	0,0340119
1169,6152	0,0339779
1170,5795	0,0338965
1171,5437	0,033789
1172,5079	0,0336866
1173,4722	0,0336242
1174,4364	0,0336299
1175,4006	0,03371
1176,3649	0,0338378
1177,3291	0,0339542
1178,2933	0,0339882
1179,2576	0,0338902
1180,2218	0,0336623
1181,1860	0,0333648
1182,1503	0,0330908
1183,1145	0,032922
1184,0787	0,0328949
1185,0430	0,0329939
1186,0072	0,0331721
1186,9714	0,0333808
1187,9357	0,0335884
1188,8999	0,0337798
1189,8641	0,0339448
1190,8284	0,0340699
1191,7926	0,034142
1192,7568	0,0341602
1193,7211	0,0341426
1194,6853	0,0341193
1195,6495	0,0341167
1196,6138	0,034144
1197,5780	0,0341923
1198,5422	0,0342464
1199,5065	0,0342989
1200,4707	0,034356
1201,4349	0,0344329
1202,3992	0,0345423
1203,3634	0,0346866
1204,3276	0,0348565
1205,2919	0,0350371
1206,2561	0,0352147
1207,2203	0,0353824
1208,1846	0,0355402
1209,1488	0,0356938
1210,1130	0,0358498
1211,0773	0,0360117
1212,0415	0,0361757
1213,0057	0,0363288
1213,9700	0,0364525
1214,9342	0,0365317
1215,8984	0,0365652
1216,8627	0,0365724
1217,8269	0,0365897
1218,7911	0,0366551
1219,7554	0,0367895
1220,7196	0,0369832
1221,6838	0,0371986
1222,6481	0,0373878
1223,6123	0,0375162
1224,5765	0,0375786
1225,5408	0,0375994
1226,5050	0,037617
1227,4692	0,0376655
1228,4335	0,0377621
1229,3977	0,037906
1230,3619	0,0380833
1231,3262	0,0382721
1232,2904	0,0384458
1233,2546	0,0385768
1234,2189	0,0386443
1235,1831	0,0386463
1236,1473	0,0386067
1237,1116	0,0385705
1238,0758	0,0385859
1239,0400	0,0386806
1240,0043	0,0388475
1240,9685	0,039046
1241,9327	0,0392209
1242,8970	0,0393261
1243,8612	0,0393416
1244,8254	0,0392776
1245,7897	0,0391651
1246,7539	0,0390431
1247,7181	0,0389464
1248,6824	0,0388993
1249,6466	0,0389128
1250,6108	0,0389842
1251,5751	0,0390983
1252,5393	0,0392308
1253,5035	0,0393557
1254,4678	0,0394543
1255,4320	0,0395214
1256,3962	0,0395657
1257,3605	0,039603
1258,3247	0,0396451
1259,2889	0,0396916
1260,2532	0,0397289
1261,2174	0,0397395
1262,1816	0,0397144
1263,1459	0,0396616
1264,1101	0,0396029
1265,0743	0,0395611
1266,0386	0,0395442
1267,0028	0,0395386
1267,9670	0,0395161
1268,9313	0,0394518
1269,8955	0,0393415
1270,8597	0,0392069
1271,8240	0,0390837
1272,7882	0,0389999
1273,7524	0,0389586
1274,7167	0,0389372
1275,6809	0,0389027
1276,6451	0,0388335
1277,6094	0,0387323
1278,5736	0,0386249
1279,5378	0,0385448
1280,5021	0,0385168
1281,4663	0,0385479
1282,4305	0,0386293
1283,3948	0,0387463
1284,3590	0,038885
1285,3232	0,0390335
1286,2875	0,0391793
1287,2517	0,0393085
1288,2159	0,0394111
1289,1802	0,0394888
1290,1444	0,0395586
1291,1086	0,0396474
1292,0729	0,0397781
1293,0371	0,039957
1294,0013	0,0401702
1294,9656	0,0403917
1295,9298	0,0405972
1296,8940	0,0407762
1297,8583	0,0409325
1298,8225	0,0410769
1299,7867	0,0412158
1300,7510	0,0413445
1301,7152	0,0414484
1302,6794	0,0415085
1303,6437	0,0415094
1304,6079	0,0414455
1305,5721	0,041325
1306,5364	0,0411697
1307,5006	0,0410091
1308,4648	0,0408697
1309,4291	0,0407636
1310,3933	0,0406834
1311,3575	0,0406085
1312,3218	0,0405183
1313,2860	0,0404051
1314,2502	0,0402736
1315,2145	0,0401299
1316,1787	0,0399667
1317,1429	0,0397607
1318,1072	0,0394867
1319,0714	0,0391407
1320,0356	0,038754
1320,9999	0,0383842
1321,9641	0,0380882
1322,9283	0,0378954
1323,8926	0,0377978
1324,8568	0,0377592
1325,8210	0,0377351
1326,7853	0,0376929
1327,7495	0,0376229
1328,7137	0,037538
1329,6780	0,0374674
1330,6422	0,0374471
1331,6064	0,0375118
1332,5707	0,0376868
1333,5349	0,0379829
1334,4991	0,0383931
1335,4634	0,0388933
1336,4276	0,0394416
1337,3918	0,0399776
1338,3561	0,0404294
1339,3203	0,0407368
1340,2845	0,0408835
1341,2488	0,0409129
1342,2130	0,0409093
1343,1772	0,040961
1344,1415	0,0411254
1345,1057	0,0414111
1346,0699	0,0417783
1347,0342	0,0421608
1347,9984	0,042501
1348,9626	0,0427779
1349,9269	0,0430081
1350,8911	0,0432184
1351,8553	0,0434143
1352,8196	0,043569
1353,7838	0,0436448
1354,7480	0,0436319
1355,7123	0,0435748
1356,6765	0,0435613
1357,6407	0,0436811
1358,6050	0,043983
1359,5692	0,0444552
1360,5334	0,0450303
1361,4977	0,0456134
1362,4619	0,0461298
1363,4261	0,0465654
1364,3904	0,0469608
1365,3546	0,0473628
1366,3188	0,0477803
1367,2831	0,0481774
1368,2473	0,0485019
1369,2115	0,0487317
1370,1758	0,0489082
1371,1400	0,0491338
1372,1042	0,049528
1373,0685	0,0501583
1374,0327	0,0509716
1374,9969	0,0517764
1375,9612	0,0523062
1376,9254	0,0523233
1377,8896	0,0516869
1378,8539	0,0503763
1379,8181	0,0485062
1380,7823	0,0463256
1381,7466	0,0441553
1382,7108	0,0422699
1383,6750	0,040805
1384,6393	0,0397489
1385,6035	0,0389996
1386,5677	0,038443
1387,5320	0,0380136
1388,4962	0,0377086
1389,4604	0,03755
1390,4247	0,0375422
1391,3889	0,0376593
1392,3531	0,0378544
1393,3174	0,038073
1394,2816	0,0382639
1395,2458	0,0383882
1396,2101	0,0384231
1397,1743	0,0383633
1398,1385	0,0382261
1399,1028	0,0380572
1400,0670	0,0379241
1401,0313	0,0378898
1401,9955	0,0379839
1402,9597	0,0381881
1403,9240	0,0384452
1404,8882	0,0386906
1405,8524	0,0388918
1406,8167	0,0390666
1407,7809	0,0392608
1408,7451	0,0395073
1409,7094	0,039803
1410,6736	0,0401167
1411,6378	0,040418
1412,6021	0,0407023
1413,5663	0,0409918
1414,5305	0,041311
1415,4948	0,041659
1416,4590	0,0419958
1417,4232	0,0422531
1418,3875	0,0423815
1419,3517	0,0424105
1420,3159	0,0424476
1421,2802	0,0426052
1422,2444	0,0429446
1423,2086	0,0434743
1424,1729	0,0441695
1425,1371	0,0449925
1426,1013	0,0459178
1427,0656	0,0469515
1428,0298	0,0481292
1428,9940	0,0494809
1429,9583	0,0509864
1430,9225	0,0525677
1431,8867	0,054136
1432,8510	0,0556436
1433,8152	0,0570896
1434,7794	0,0584789
1435,7437	0,0597777
1436,7079	0,0609175
1437,6721	0,0618675
1438,6364	0,0626891
1439,6006	0,0634923
1440,5648	0,0643645
1441,5291	0,0653449
1442,4933	0,0664368
1443,4575	0,0676285
1444,4218	0,0689118
1445,3860	0,0702968
1446,3502	0,0718264
1447,3145	0,0735938
1448,2787	0,0757475
1449,2429	0,0784488
1450,2072	0,0817881
1451,1714	0,0857252
1452,1356	0,0901016
1453,0999	0,0947026
1454,0641	0,0993456
1455,0283	0,104018
1455,9926	0,109071
1456,9568	0,115177
1457,9210	0,122668
1458,8853	0,13104
1459,8495	0,139522
1460,8137	0,147616
1461,7780	0,154981
1462,7422	0,161188
1463,7064	0,16577
1464,6707	0,16873
1465,6349	0,17103
1466,5991	0,174204
1467,5634	0,179342
1468,5276	0,186492
1469,4918	0,194391
1470,4561	0,199919
1471,4203	0,197869
1472,3845	0,183364
1473,3488	0,157172
1474,3130	0,126684
1475,2772	0,0994951
1476,2415	0,0788378
1477,2057	0,0645344
1478,1699	0,0551883
1479,1342	0,0493055
1480,0984	0,0456219
1481,0626	0,0431909
1482,0269	0,0414263
1482,9911	0,0400765
1483,9553	0,0390981
1484,9196	0,0384935
1485,8838	0,038196
1486,8480	0,038033
1487,8123	0,0377615
1488,7765	0,0371906
1489,7407	0,0363392
1490,7050	0,0354321
1491,6692	0,0347009
1492,6334	0,0342409
1493,5977	0,0340287
1494,5619	0,0339825
1495,5261	0,0339903
1496,4904	0,0339287
1497,4546	0,0337181
1498,4188	0,0333919
1499,3831	0,0330779
1500,3473	0,0328971
1501,3115	0,0329051
1502,2758	0,0331075
1503,2400	0,0334873
1504,2042	0,0339995
1505,1685	0,0345197
1506,1327	0,0347889
1507,0969	0,034555
1508,0612	0,0339109
1509,0254	0,033221
1509,9896	0,0327282
1510,9539	0,0324812
1511,9181	0,0324518
1512,8823	0,0325987
1513,8466	0,032873
1514,8108	0,0332117
1515,7750	0,0335428
1516,7393	0,0338053
1517,7035	0,0339623
1518,6677	0,0339929
1519,6320	0,033882
1520,5962	0,0336316
1521,5604	0,0332864
1522,5247	0,032928
1523,4889	0,0326268
1524,4531	0,0324057
1525,4174	0,0322492
1526,3816	0,0321376
1527,3458	0,0320723
1528,3101	0,0320737
1529,2743	0,0321588
1530,2385	0,0323199
1531,2028	0,0325142
1532,1670	0,0326743
1533,1312	0,032752
1534,0955	0,0327697
1535,0597	0,0328164
1536,0239	0,0329885
1536,9882	0,0333456
1537,9524	0,0338895
1538,9166	0,0345176
1539,8809	0,0349669
1540,8451	0,0349404
1541,8093	0,0344418
1542,7736	0,0337707
1543,7378	0,0331817
1544,7020	0,0327696
1545,6663	0,0325431
1546,6305	0,0324803
1547,5947	0,0325425
1548,5590	0,0326783
1549,5232	0,0328356
1550,4874	0,0329834
1551,4517	0,0331298
1552,4159	0,0333211
1553,3801	0,0336153
1554,3444	0,0340494
1555,3086	0,0346142
1556,2728	0,0352206
1557,2371	0,0356372
1558,2013	0,0355273
1559,1655	0,0348291
1560,1298	0,0339873
1561,0940	0,0334212
1562,0582	0,0332031
1563,0225	0,0332454
1563,9867	0,0334558
1564,9509	0,0337617
1565,9152	0,0340908
1566,8794	0,0343567
1567,8436	0,0344743
1568,8079	0,0344163
1569,7721	0,0342623
1570,7363	0,0341601
1571,7006	0,0342262
1572,6648	0,0344913
1573,6290	0,0349034
1574,5933	0,0353381
1575,5575	0,0356217
1576,5217	0,0356294
1577,4860	0,0354091
1578,4502	0,0351402
1579,4144	0,0349692
1580,3787	0,034942
1581,3429	0,0350382
1582,3071	0,035215
1583,2714	0,0354318
1584,2356	0,0356614
1585,1998	0,0358902
1586,1641	0,0361116
1587,1283	0,0363183
1588,0925	0,0365016
1589,0568	0,0366557
1590,0210	0,0367818
1590,9852	0,036888
1591,9495	0,0369845
1592,9137	0,0370802
1593,8779	0,0371795
1594,8422	0,0372785
1595,8064	0,0373617
1596,7706	0,037404
1597,7349	0,03738
1598,6991	0,0372777
1599,6633	0,0371093
1600,6276	0,0369107
1601,5918	0,0367285
1602,5560	0,0365999
1603,5203	0,0365362
1604,4845	0,0365198
1605,4487	0,0365123
1606,4130	0,0364697
1607,3772	0,0363559
1608,3414	0,0361594
1609,3057	0,0359079
1610,2699	0,0356621
1611,2341	0,0354852
1612,1984	0,0354088
1613,1626	0,0354178
1614,1268	0,0354524
1615,0911	0,0354253
1616,0553	0,0352751
1617,0195	0,0350362
1617,9838	0,0348263
1618,9480	0,0347399
1619,9122	0,034786
1620,8765	0,0349102
1621,8407	0,0350327
1622,8049	0,0350801
1623,7692	0,035013
1624,7334	0,0348364
1625,6976	0,034577
1626,6619	0,034262
1627,6261	0,0339304
1628,5903	0,0336525
1629,5546	0,0335165
1630,5188	0,033583
1631,4830	0,0338527
1632,4473	0,0342616
1633,4115	0,034678
1634,3757	0,0349041
1635,3400	0,0347542
1636,3042	0,0342388
1637,2684	0,0336004
1638,2327	0,0330805
1639,1969	0,0327731
1640,1611	0,0326815
1641,1254	0,0327935
1642,0896	0,0330957
1643,0538	0,0335499
1644,0181	0,0340575
1644,9823	0,0344426
1645,9465	0,0345283
1646,9108	0,0343169
1647,8750	0,0340412
1648,8392	0,0339511
1649,8035	0,0341363
1650,7677	0,0345122
1651,7319	0,0348177
1652,6962	0,0346519
1653,6604	0,0338537
1654,6246	0,0328569
1655,5889	0,0321673
1656,5531	0,0318929
1657,5173	0,0319162
1658,4816	0,0320907
1659,4458	0,0322816
1660,4100	0,0323654
1661,3743	0,032264
1662,3385	0,0320111
1663,3027	0,0317521
1664,2670	0,031638
1665,2312	0,031727
1666,1954	0,0319755
1667,1597	0,0322704
1668,1239	0,0324675
1669,0881	0,032458
1670,0524	0,0322513
1671,0166	0,0319719
1671,9808	0,0317375
1672,9451	0,0315651
1673,9093	0,0313874
1674,8735	0,0311355
1675,8378	0,0308253
1676,8020	0,0305734
1677,7662	0,0305136
1678,7305	0,0307096
1679,6947	0,031142
1680,6589	0,0317285
1681,6232	0,0323155
1682,5874	0,0326605
1683,5516	0,032524
1684,5159	0,0319183
1685,4801	0,0311525
1686,4443	0,0305069
1687,4086	0,0300506
1688,3728	0,0297399
1689,3370	0,029535
1690,3013	0,0294368
1691,2655	0,0294707
1692,2297	0,0296533
1693,1940	0,0299672
1694,1582	0,0303499
1695,1224	0,0307031
1696,0867	0,0309204
1697,0509	0,0309276
1698,0151	0,0307144
1698,9794	0,0303443
1699,9436	0,0299358
1700,9078	0,0296051
1701,8721	0,0294005
1702,8363	0,0292868
1703,8005	0,0291839
1704,7648	0,0290159
1705,7290	0,0287513
1706,6932	0,0284251
1707,6575	0,0281218
1708,6217	0,0279221
1709,5859	0,0278641
1710,5502	0,0279493
1711,5144	0,0281718
1712,4786	0,0285329
1713,4429	0,0290266
1714,4071	0,0296001
1715,3713	0,0301079
1716,3356	0,0303274
1717,2998	0,030114
1718,2640	0,0295759
1719,2283	0,0289877
1720,1925	0,0285496
1721,1567	0,0283043
1722,1210	0,0281988
1723,0852	0,0281557
1724,0494	0,0281157
1725,0137	0,0280602
1725,9779	0,0280171
1726,9421	0,0280444
1727,9064	0,0281993
1728,8706	0,0285108
1729,8348	0,0289613
1730,7991	0,029472
1731,7633	0,029893
1732,7275	0,0300382
1733,6918	0,0298173
1734,6560	0,0293621
1735,6202	0,0289273
1736,5845	0,0286782
1737,5487	0,0286318
1738,5129	0,0287211
1739,4772	0,028858
1740,4414	0,0289718
1741,4056	0,0290355
1742,3699	0,029069
1743,3341	0,0291127
1744,2983	0,0291922
1745,2626	0,0292989
1746,2268	0,0293851
1747,1910	0,0293707
1748,1553	0,0291706
1749,1195	0,0287523
1750,0837	0,0281912
1751,0480	0,027647
1752,0122	0,0272577
1752,9764	0,027062
1753,9407	0,0270117
1754,9049	0,0270276
1755,8691	0,0270464
1756,8334	0,027043
1757,7976	0,0270246
1758,7618	0,0270009
1759,7261	0,0269556
1760,6903	0,0268473
1761,6545	0,0266454
1762,6188	0,0263715
1763,5830	0,026104
1764,5472	0,0259368
1765,5115	0,0259328
1766,4757	0,0261024
1767,4399	0,026405
1768,4042	0,0267588
1769,3684	0,027055
1770,3326	0,0271836
1771,2969	0,027076
1772,2611	0,0267521
1773,2253	0,0263249
1774,1896	0,0259333
1775,1538	0,0256651
1776,1180	0,0255403
1777,0823	0,0255372
1778,0465	0,0256188
1779,0107	0,0257439
1779,9750	0,0258693
1780,9392	0,0259531
1781,9034	0,0259621
1782,8677	0,0258815
1783,8319	0,0257262
1784,7961	0,0255484
1785,7604	0,0254258
1786,7246	0,0254274
1787,6888	0,0255773
1788,6531	0,025837
1789,6173	0,0261057
1790,5815	0,0262436
1791,5458	0,0261363
1792,5100	0,0257916
1793,4742	0,0253624
1794,4385	0,0250329
1795,4027	0,024896
1796,3669	0,0249363
1797,3312	0,0250761
1798,2954	0,0252182
1799,2596	0,0252793
1800,2239	0,0252203
1801,1881	0,0250634
1802,1523	0,0248738
1803,1166	0,0247194
1804,0808	0,0246387
1805,0450	0,0246348
1806,0093	0,0246846
1806,9735	0,0247549
1807,9377	0,0248168
1808,9020	0,0248571
1809,8662	0,0248816
1810,8304	0,0249062
1811,7947	0,0249414
1812,7589	0,0249831
1813,7231	0,0250158
1814,6874	0,0250236
1815,6516	0,0249996
1816,6158	0,0249478
1817,5801	0,0248803
1818,5443	0,0248114
1819,5085	0,0247534
1820,4728	0,0247174
1821,4370	0,024715
1822,4012	0,0247581
1823,3655	0,0248531
1824,3297	0,024993
1825,2939	0,0251548
1826,2582	0,0253046
1827,2224	0,025406
1828,1866	0,0254274
1829,1509	0,0253507
1830,1151	0,0251862
1831,0793	0,0249768
1832,0436	0,0247807
1833,0078	0,0246418
1833,9720	0,0245755
1834,9363	0,0245738
1835,9005	0,0246199
1836,8647	0,0247014
1837,8290	0,0248153
1838,7932	0,0249581
1839,7574	0,0251075
1840,7217	0,0252107
1841,6859	0,0251922
1842,6501	0,0249918
1843,6144	0,0246261
1844,5786	0,0242168
1845,5428	0,0239176
1846,5071	0,0237938
1847,4713	0,0237884
1848,4355	0,0237906
1849,3998	0,0237221
1850,3640	0,0235846
1851,3282	0,0234532
1852,2925	0,0234199
1853,2567	0,0235279
1854,2209	0,0237419
1855,1852	0,0239739
1856,1494	0,0241388
1857,1136	0,0241964
1858,0779	0,024159
1859,0421	0,0240687
1860,0063	0,0239741
1860,9706	0,0239208
1861,9348	0,0239508
1862,8990	0,0240954
1863,8633	0,0243544
1864,8275	0,0246754
1865,7917	0,0249468
1866,7560	0,0250237
1867,7202	0,0248007
1868,6844	0,0243058
1869,6487	0,0237228
1870,6129	0,0232866
1871,5771	0,0231432
1872,5414	0,0232984
1873,5056	0,02365
1874,4698	0,024043
1875,4341	0,0243249
1876,3983	0,0243989
1877,3625	0,0242588
1878,3268	0,0239809
1879,2910	0,0236757
1880,2552	0,0234334
1881,2195	0,0232973
1882,1837	0,0232669
1883,1479	0,0233199
1884,1122	0,02343
1885,0764	0,0235726
1886,0406	0,0237226
1887,0049	0,0238558
1887,9691	0,0239591
1888,9333	0,0240381
1889,8976	0,0241075
1890,8618	0,0241631
1891,8260	0,0241628
1892,7903	0,0240418
1893,7545	0,0237585
1894,7188	0,0233419
1895,6830	0,0229023
1896,6472	0,0225863
1897,6115	0,0224983
1898,5757	0,0226502
1899,5399	0,0229766
1900,5042	0,0233929
1901,4684	0,0238425
1902,4326	0,024297
1903,3969	0,0247186
1904,3611	0,0250255
1905,3253	0,0251046
1906,2896	0,0248772
1907,2538	0,024376
1908,2180	0,0237727
1909,1823	0,0233181
1910,1465	0,0232084
1911,1107	0,0234675
1912,0750	0,0239319
1913,0392	0,0243457
1914,0034	0,0244848
1914,9677	0,0242423
1915,9319	0,0236588
1916,8961	0,0229051
1917,8604	0,0222145
1918,8246	0,0217802
1919,7888	0,021674
1920,7531	0,0218398
1921,7173	0,022147
1922,6815	0,0224596
1923,6458	0,0226883
1924,6100	0,0228108
1925,5742	0,0228498
1926,5385	0,0228255
1927,5027	0,0227219
1928,4669	0,0225005
1929,4312	0,0221548
1930,3954	0,0217594
1931,3596	0,0214603
1932,3239	0,0213903
1933,2881	0,0215634
1934,2523	0,0218322
1935,2166	0,0219567
1936,1808	0,0217523
1937,1450	0,0212193
1938,1093	0,0205594
1939,0735	0,0200738
1940,0377	0,0200137
1941,0020	0,0204665
1941,9662	0,0213266
1942,9304	0,0223665
1943,8947	0,0233636
1944,8589	0,0241855
1945,8231	0,0247793
1946,7874	0,0251116
1947,7516	0,0251418
1948,7158	0,0248528
1949,6801	0,0242941
1950,6443	0,0235713
1951,6085	0,0227736
1952,5728	0,0219088
1953,5370	0,0209269
1954,5012	0,0198298
1955,4655	0,0187595
1956,4297	0,0179508
1957,3939	0,0175514
1958,3582	0,0174577
1959,3224	0,0173599
1960,2866	0,0170623
1961,2509	0,0168509
1962,2151	0,0175062
1963,1793	0,0197946
1964,1436	0,0237273
1965,1078	0,0281015
1966,0720	0,0307815
1967,0363	0,0298513
1968,0005	0,0250169
1968,9647	0,018045
1969,9290	0,0117528
1970,8932	0,00845809
1971,8574	0,00902025
1972,8217	0,0127782
1973,7859	0,0181041
1974,7501	0,0231831
1975,7144	0,0266689
1976,6786	0,0279616
1977,6428	0,0271024
1978,6071	0,0245184
1979,5713	0,0208465
1980,5355	0,0168639
1981,4998	0,0134215
1982,4640	0,0113094
1983,4282	0,0110564
1984,3925	0,0127186
1985,3567	0,0157555
1986,3209	0,0191117
1987,2852	0,02154
1988,2494	0,0220654
1989,2136	0,0203973
1990,1779	0,0171111
1991,1421	0,0134783
1992,1063	0,010947
1993,0706	0,0104899
1994,0348	0,012182
1994,9990	0,0152222
1995,9633	0,0183089
1996,9275	0,0201429
1997,8917	0,0199018
1998,8560	0,0175875
1999,8202	0,0141071
2000,7844	0,0109815
2001,7487	0,0097572
2002,7129	0,0113697
2003,6771	0,015697
2004,6414	0,0214508
2005,6056	0,026525
2006,5698	0,0288496
2007,5341	0,02745
2008,4983	0,023008
2009,4625	0,0174232
2010,4268	0,0127102
2011,3910	0,010053
2012,3552	0,00953385
2013,3195	0,0104974
2014,2837	0,0121942
2015,2479	0,0142662
2016,2122	0,016748
2017,1764	0,0196028
2018,1406	0,0222199
2019,1049	0,0234211
2020,0691	0,0221283
2021,0333	0,0182153
2021,9976	0,0128265
2022,9618	0,00789166
2023,9260	0,00519177
2024,8903	0,005554
2025,8545	0,0085622
2026,8187	0,0128502
2027,7830	0,0167522
2028,7472	0,0189279
2029,7114	0,0186988
2030,6757	0,0161164
2031,6399	0,0119271
2032,6041	0,00745763
2033,5684	0,00429331
2034,5326	0,00370732
2035,4968	0,00607696
2036,4611	0,0106748
2037,4253	0,0160344
2038,3895	0,0206857
2039,3538	0,0238004
2040,3180	0,0253921
2041,2822	0,0260425
2042,2465	0,0264046
2043,2107	0,0267992
2044,1749	0,0270861
2045,1392	0,0268097
2046,1034	0,0255077
2047,0676	0,0230555
2048,0320	0,0198724
2048,9961	0,0168169
2049,9604	0,0147863
2050,9246	0,0142952
2051,8889	0,0152949
2052,8530	0,0172689
2053,8174	0,0194888
2054,7815	0,021304
2055,7458	0,0223495
2056,7100	0,022583
2057,6743	0,0221579
2058,6384	0,0212629
2059,6028	0,0200618
2060,5669	0,0187484
2061,5313	0,0176093
2062,4954	0,0169837
2063,4597	0,0171147
2064,4238	0,0179964
2065,3882	0,0193385
2066,3523	0,0206852
2067,3167	0,0216163
2068,2808	0,0219128
2069,2451	0,0216162
2070,2092	0,0209916
2071,1736	0,0204382
2072,1377	0,0203701
2073,1021	0,0210684
2074,0662	0,0225319
2075,0305	0,0243996
2075,9946	0,0260253
2076,9590	0,0267256
2077,9231	0,0261116
2078,8875	0,0243144
2079,8516	0,0219397
2080,8159	0,0197589
2081,7800	0,0183348
2082,7444	0,0178114
2083,7085	0,0179621
2084,6729	0,0184226
2085,6370	0,018935
2086,6013	0,0194423
2087,5654	0,0199919
2088,5298	0,0205471
2089,4939	0,0208823
2090,4583	0,0206698
2091,4224	0,019715
2092,3867	0,0181752
2093,3508	0,0165875
2094,3152	0,0156532
2095,2793	0,0158816
2096,2437	0,0172995
2097,2078	0,0194136
2098,1721	0,0214601
2099,1362	0,0227821
2100,1006	0,0230991
2101,0647	0,022536
2102,0291	0,0214563
2102,9932	0,0202487
2103,9575	0,0191959
2104,9216	0,0184623
2105,8860	0,0181476
2106,8501	0,018324
2107,8145	0,0190095
2108,7786	0,0201001
2109,7429	0,0213329
2110,7070	0,0223444
2111,6714	0,0228225
2112,6355	0,0226703
2113,5999	0,022073
2114,5640	0,0214095
2115,5283	0,0210496
2116,4924	0,0211548
2117,4568	0,0216013
2118,4209	0,0220744
2119,3853	0,0222772
2120,3494	0,0221175
2121,3137	0,0217516
2122,2778	0,0214602
2123,2422	0,0214528
2124,2063	0,0217401
2125,1707	0,0221591
2126,1348	0,022519
2127,0991	0,0227472
2128,0632	0,0229204
2129,0276	0,0231608
2129,9917	0,0234871
2130,9561	0,0237509
2131,9202	0,0237275
2132,8845	0,0233146
2133,8486	0,0226866
2134,8130	0,0222444
2135,7771	0,0223433
2136,7415	0,0229855
2137,7056	0,0237322
2138,6699	0,0239364
2139,6340	0,0231571
2140,5984	0,0214721
2141,5625	0,0194532
2142,5269	0,017801
2143,4910	0,016897
2144,4553	0,0166027
2145,4194	0,0164553
2146,3838	0,0161174
2147,3479	0,0157342
2148,3123	0,0158932
2149,2764	0,0171791
2150,2407	0,0196519
2151,2048	0,022648
2152,1692	0,0250583
2153,1333	0,0259009
2154,0977	0,0248236
2155,0618	0,0222426
2156,0261	0,0190832
2156,9902	0,0163135
2157,9546	0,0145362
2158,9187	0,0138327
2159,8831	0,0139019
2160,8472	0,0143255
2161,8115	0,0147377
2162,7756	0,0148783
2163,7400	0,0146505
2164,7041	0,0142105
2165,6685	0,0139742
2166,6326	0,0144385
2167,5969	0,0158789
2168,5610	0,0181351
2169,5254	0,0206511
2170,4895	0,022756
2171,4539	0,0240056
2172,4180	0,0243712
2173,3823	0,0241573
2174,3464	0,0237109
2175,3108	0,023142
2176,2749	0,0222847
2177,2393	0,0209401
2178,2034	0,0191935
2179,1677	0,0175312
2180,1318	0,0166427
2181,0962	0,0170258
2182,0603	0,0186434
2183,0247	0,0208623
2183,9888	0,0227426
2184,9531	0,0235128
2185,9172	0,0229494
2186,8816	0,0214604
2187,8457	0,019863
2188,8101	0,0189888
2189,7742	0,0192984
2190,7385	0,0206665
2191,7026	0,0224396
2192,6670	0,0237552
2193,6311	0,0239757
2194,5955	0,0229997
2195,5596	0,0212698
2196,5239	0,0194933
2197,4880	0,0182755
2198,4524	0,0178829
2199,4165	0,0182341
2200,3809	0,019054
2201,3450	0,0200481
2202,3093	0,0209857
2203,2734	0,021686
2204,2378	0,0219871
2205,2019	0,0217744
2206,1663	0,0210648
2207,1304	0,0200692
2208,0947	0,0191545
2209,0588	0,0186914
2210,0232	0,0188631
2210,9873	0,0195516
2211,9517	0,0203789
2212,9158	0,0208882
2213,8801	0,0207726
2214,8442	0,0200371
2215,8086	0,0190072
2216,7727	0,0181752
2217,7371	0,0179539
2218,7012	0,0184649
2219,6655	0,0194761
2220,6296	0,0205252
2221,5940	0,0211671
2222,5581	0,021202
2223,5225	0,0207554
2224,4866	0,0201786
2225,4509	0,019849
2226,4150	0,0199895
2227,3794	0,0205879
2228,3435	0,0214281
2229,3079	0,0221987
2230,2720	0,0226266
2231,2363	0,0225894
2232,2004	0,0221615
2233,1648	0,0215735
2234,1289	0,0210992
2235,0933	0,0209264
2236,0574	0,0210849
2237,0217	0,021467
2237,9858	0,0219153
2238,9502	0,0223091
2239,9143	0,0225907
2240,8787	0,0227351
2241,8428	0,0227187
2242,8071	0,0225371
2243,7712	0,0222575
2244,7356	0,0220364
2245,6997	0,0220523
2246,6641	0,022377
2247,6282	0,0228878
2248,5925	0,0233084
2249,5566	0,0233722
2250,5210	0,0229965
2251,4851	0,0223438
2252,4495	0,0217289
2253,4136	0,0214402
2254,3779	0,0215967
2255,3420	0,0221227
2256,3064	0,0228268
2257,2705	0,0235035
2258,2349	0,0239832
2259,1990	0,0241335
2260,1633	0,0238668
2261,1274	0,0231843
2262,0918	0,0222292
2263,0559	0,0212788
2264,0203	0,0206481
2264,9844	0,0205465
2265,9487	0,0209799
2266,9128	0,0217603
2267,8772	0,0226139
2268,8413	0,0233167
2269,8057	0,0237741
2270,7698	0,0240115
2271,7341	0,0241092
2272,6982	0,0241375
2273,6626	0,0241303
2274,6267	0,0240896
2275,5911	0,0239993
2276,5552	0,0238356
2277,5195	0,0235784
2278,4836	0,02323
2279,4480	0,0228322
2280,4121	0,022464
2281,3765	0,0222108
2282,3406	0,0221231
2283,3049	0,0221934
2284,2690	0,0223713
2285,2334	0,0226041
2286,1975	0,0228704
2287,1619	0,0231792
2288,1260	0,0235381
2289,0903	0,0239172
2290,0544	0,024244
2291,0188	0,0244369
2291,9829	0,0244561
2292,9473	0,0243346
2293,9114	0,0241674
2294,8757	0,0240641
2295,8398	0,0240948
2296,8042	0,0242599
2297,7683	0,0244964
2298,7327	0,0247135
2299,6968	0,024838
2300,6611	0,0248476
2301,6252	0,0247798
2302,5896	0,0247122
2303,5537	0,0247257
2304,5181	0,0248676
2305,4822	0,0251322
2306,4465	0,0254706
2307,4106	0,0258196
2308,3750	0,0261339
2309,3391	0,0263958
2310,3035	0,0266019
2311,2676	0,0267412
2312,2319	0,0267927
2313,1960	0,0267489
2314,1604	0,0266417
2315,1245	0,0265424
2316,0889	0,0265289
2317,0530	0,0266425
2318,0173	0,0268671
2318,9814	0,0271478
2319,9458	0,0274382
2320,9099	0,027743
2321,8743	0,0281138
2322,8384	0,0285938
2323,8027	0,0291595
2324,7668	0,029713
2325,7312	0,0301239
2326,6953	0,030284
2327,6597	0,0301495
2328,6238	0,0297647
2329,5881	0,0292608
2330,5522	0,0288139
2331,5166	0,0285613
2332,4807	0,0285229
2333,4451	0,0285879
2334,4092	0,0285858
2335,3735	0,028397
2336,3376	0,0280452
2337,3020	0,0277101
2338,2661	0,0276281
2339,2305	0,0279115
2340,1946	0,0284073
2341,1589	0,0287166
2342,1230	0,0284134
2343,0874	0,0273949
2344,0515	0,0260963
2345,0159	0,0252093
2345,9800	0,0251277
2346,9443	0,0257764
2347,9084	0,026844
2348,8728	0,0280078
2349,8369	0,029
2350,8013	0,0295925
2351,7654	0,0295898
2352,7297	0,0288916
2353,6938	0,027627
2354,6582	0,0262389
2355,6223	0,0253376
2356,5867	0,0253929
2357,5508	0,0265105
2358,5151	0,028361
2359,4792	0,0302437
2360,4436	0,0313666
2361,4077	0,0312713
2362,3721	0,0300903
2363,3362	0,02844
2364,3005	0,0270415
2365,2646	0,0263152
2366,2290	0,0262072
2367,1931	0,0263389
2368,1575	0,02632
2369,1216	0,0259791
2370,0859	0,0253899
2371,0500	0,0247504
2372,0144	0,0242426
2372,9785	0,0239612
2373,9429	0,0239126
2374,9070	0,0240439
2375,8713	0,024271
2376,8354	0,0245038
2377,7998	0,0246718
2378,7639	0,0247423
2379,7283	0,0247212
2380,6924	0,0246296
2381,6567	0,0244749
2382,6208	0,0242393
2383,5852	0,0238988
2384,5493	0,0234643
2385,5137	0,023012
2386,4778	0,022675
2387,4421	0,0225863
2388,4063	0,022802
2389,3706	0,0232511
2390,3347	0,0237522
2391,2991	0,0240986
2392,2632	0,0241623
2393,2275	0,0239544
2394,1917	0,0236042
2395,1560	0,0232778
2396,1201	0,0230923
2397,0845	0,0230758
2398,0486	0,0231851
2399,0129	0,0233547
2399,9771	0,0235367
2400,9414	0,023711
2401,9055	0,0238714
2402,8699	0,0240097
2403,8340	0,0241114
2404,7983	0,0241621
2405,7625	0,0241553
2406,7268	0,0240937
2407,6909	0,0239909
2408,6553	0,0238749
2409,6194	0,0237903
2410,5837	0,0237888
2411,5479	0,023904
2412,5122	0,0241229
2413,4763	0,024379
2414,4407	0,0245797
2415,4048	0,0246593
2416,3691	0,0246203
2417,3333	0,0245298
2418,2976	0,0244702
2419,2617	0,0244766
2420,2261	0,024511
2421,1902	0,024494
2422,1545	0,0243727
2423,1187	0,0241706
2424,0830	0,0239784
2425,0471	0,0238899
2426,0115	0,0239282
2426,9756	0,0240184
2427,9399	0,0240302
2428,9041	0,0238646
2429,8684	0,0235247
2430,8325	0,0231242
2431,7969	0,0228262
2432,7610	0,0227543
2433,7253	0,0229297
2434,6895	0,0232693
2435,6538	0,0236404
2436,6179	0,0239338
2437,5823	0,0241116
2438,5464	0,0242056
2439,5107	0,024277
2440,4749	0,0243702
2441,4392	0,0244924
2442,4033	0,0246225
2443,3677	0,0247354
2444,3318	0,0248149
2445,2961	0,0248503
2446,2603	0,0248268
2447,2246	0,0247272
2448,1887	0,02455
2449,1531	0,0243255
2450,1172	0,024111
2451,0815	0,0239619
2452,0457	0,0239002
2453,0100	0,0239094
2453,9741	0,0239611
2454,9385	0,024048
2455,9026	0,0241882
2456,8669	0,0243906
2457,8311	0,0246073
2458,7954	0,0247246
2459,7595	0,0246161
2460,7239	0,0242324
2461,6880	0,0236624
2462,6523	0,0231128
2463,6165	0,0228061
2464,5808	0,0228582
2465,5449	0,0232145
2466,5093	0,0236847
2467,4734	0,0240537
2468,4377	0,0241982
2469,4019	0,0241404
2470,3662	0,0240127
2471,3303	0,0239657
2472,2947	0,0240752
2473,2588	0,0243001
2474,2231	0,0245066
2475,1873	0,0245431
2476,1516	0,0243251
2477,1157	0,0238909
2478,0801	0,0233982
2479,0442	0,0230595
2480,0085	0,0230409
2480,9727	0,0233757
2481,9370	0,0239392
2482,9011	0,024505
2483,8655	0,0248555
2484,8296	0,0248865
2485,7939	0,0246476
2486,7581	0,024299
2487,7224	0,0240148
2488,6865	0,0238942
2489,6509	0,0239284
2490,6150	0,0240322
2491,5793	0,0241099
2492,5435	0,0241124
2493,5078	0,0240574
2494,4719	0,0240118
2495,4363	0,0240548
2496,4004	0,024243
2497,3647	0,0245892
2498,3289	0,0250574
2499,2932	0,0255704
2500,2573	0,0260288
2501,2217	0,0263359
2502,1858	0,0264223
2503,1501	0,0262629
2504,1143	0,0258833
2505,0786	0,0253555
2506,0427	0,0247857
2507,0071	0,0242943
2507,9712	0,0239876
2508,9355	0,0239261
2509,8997	0,0241001
2510,8640	0,0244275
2511,8281	0,0247823
2512,7925	0,0250434
2513,7566	0,025142
2514,7209	0,0250811
2515,6851	0,0249199
2516,6494	0,0247361
2517,6135	0,0245895
2518,5779	0,0245069
2519,5420	0,0244883
2520,5063	0,0245222
2521,4705	0,0245935
2522,4348	0,0246814
2523,3989	0,0247573
2524,3633	0,0247937
2525,3274	0,0247853
2526,2917	0,024765
2527,2559	0,0247965
2528,2202	0,0249374
2529,1843	0,0251955
2530,1487	0,0255084
2531,1128	0,0257715
2532,0771	0,0258981
2533,0413	0,0258737
2534,0056	0,025763
2534,9697	0,0256608
2535,9341	0,0256241
2536,8982	0,0256346
2537,8625	0,0256215
2538,8267	0,0255257
2539,7910	0,0253546
2540,7551	0,0251847
2541,7195	0,0251094
2542,6836	0,0251734
2543,6479	0,0253449
2544,6121	0,0255436
2545,5764	0,0257015
2546,5405	0,0258081
2547,5049	0,0259088
2548,4690	0,0260595
2549,4333	0,0262757
2550,3975	0,026513
2551,3618	0,0266907
2552,3259	0,0267421
2553,2903	0,0266561
2554,2544	0,0264871
2555,2188	0,0263266
2556,1829	0,0262563
2557,1472	0,0263065
2558,1113	0,0264427
2559,0757	0,0265869
2560,0398	0,0266608
2561,0042	0,0266291
2561,9683	0,0265156
2562,9326	0,0263843
2563,8967	0,0262971
2564,8611	0,0262771
2565,8252	0,0263017
2566,7896	0,0263294
2567,7537	0,0263379
2568,7180	0,0263411
2569,6821	0,0263734
2570,6465	0,0264544
2571,6106	0,0265659
2572,5750	0,0266622
2573,5391	0,0267069
2574,5034	0,0267026
2575,4675	0,0266893
2576,4319	0,0267096
2577,3960	0,0267714
2578,3604	0,0268394
2579,3245	0,0268651
2580,2888	0,0268293
2581,2529	0,0267627
2582,2173	0,0267296
2583,1814	0,026788
2584,1458	0,0269596
2585,1099	0,027228
2586,0742	0,0275597
2587,0383	0,0279236
2588,0027	0,0282922
2588,9668	0,0286299
2589,9312	0,0288887
2590,8953	0,0290227
2591,8596	0,0290143
2592,8237	0,0288885
2593,7881	0,0287015
2594,7522	0,02851
2595,7166	0,0283429
2596,6807	0,028198
2597,6450	0,0280618
2598,6091	0,0279364
2599,5735	0,0278506
2600,5376	0,0278488
2601,5020	0,0279636
2602,4661	0,0281905
2603,4304	0,0284792
2604,3945	0,028749
2605,3589	0,0289221
2606,3230	0,0289613
2607,2874	0,0288936
2608,2515	0,0288024
2609,2158	0,0287873
2610,1799	0,0289104
2611,1443	0,0291613
2612,1084	0,0294631
2613,0728	0,0297199
2614,0369	0,0298723
2615,0012	0,0299261
2615,9653	0,0299367
2616,9297	0,0299648
2617,8938	0,0300397
2618,8582	0,0301556
2619,8223	0,030296
2620,7866	0,0304596
2621,7507	0,0306607
2622,7151	0,0309063
2623,6792	0,0311739
2624,6436	0,0314142
2625,6077	0,0315801
2626,5720	0,0316597
2627,5361	0,0316827
2628,5005	0,0316967
2629,4646	0,0317312
2630,4290	0,0317803
2631,3931	0,0318159
2632,3574	0,0318188
2633,3215	0,0317985
2634,2859	0,0317856
2635,2500	0,0318054
2636,2144	0,0318557
2637,1785	0,0319082
2638,1428	0,0319305
2639,1069	0,0319106
2640,0713	0,0318638
2641,0354	0,0318208
2641,9998	0,0318075
2642,9639	0,0318332
2643,9282	0,0318903
2644,8923	0,0319618
2645,8567	0,0320272
2646,8208	0,0320661
2647,7852	0,0320628
2648,7493	0,032016
2649,7136	0,0319452
2650,6777	0,0318875
2651,6421	0,0318804
2652,6062	0,0319407
2653,5706	0,0320535
2654,5347	0,0321809
2655,4990	0,0322861
2656,4631	0,0323553
2657,4275	0,0324027
2658,3916	0,0324581
2659,3560	0,0325455
2660,3201	0,0326694
2661,2844	0,0328149
2662,2485	0,0329593
2663,2129	0,0330835
2664,1770	0,0331789
2665,1414	0,0332457
2666,1055	0,0332889
2667,0698	0,0333136
2668,0339	0,0333215
2668,9983	0,0333103
2669,9624	0,0332749
2670,9268	0,0332119
2671,8909	0,0331256
2672,8552	0,0330298
2673,8193	0,0329429
2674,7837	0,0328788
2675,7478	0,0328393
2676,7122	0,0328155
2677,6763	0,0327988
2678,6406	0,0327923
2679,6047	0,0328124
2680,5691	0,0328762
2681,5332	0,0329837
2682,4976	0,0331071
2683,4617	0,0332
2684,4260	0,0332205
2685,3901	0,033156
2686,3545	0,0330316
2687,3186	0,0328973
2688,2830	0,0328023
2689,2471	0,032773
2690,2114	0,0328068
2691,1755	0,0328826
2692,1399	0,0329763
2693,1040	0,0330718
2694,0684	0,0331614
2695,0325	0,0332399
2695,9968	0,0333001
2696,9609	0,0333337
2697,9253	0,0333356
2698,8894	0,0333073
2699,8538	0,0332572
2700,8179	0,0331985
2701,7822	0,0331468
2702,7463	0,0331198
2703,7107	0,0331343
2704,6748	0,0332009
2705,6392	0,0333168
2706,6033	0,0334643
2707,5676	0,0336171
2708,5317	0,0337552
2709,4961	0,0338772
2710,4602	0,0340003
2711,4246	0,0341466
2712,3887	0,0343227
2713,3530	0,0345097
2714,3171	0,0346721
2715,2815	0,0347821
2716,2456	0,0348437
2717,2100	0,0348964
2718,1741	0,0349949
2719,1384	0,0351731
2720,1025	0,0354174
2721,0669	0,0356666
2722,0310	0,0358426
2722,9954	0,0358942
2723,9595	0,0358295
2724,9238	0,0357158
2725,8879	0,035648
2726,8523	0,0357018
2727,8164	0,0358977
2728,7808	0,0361949
2729,7449	0,0365149
2730,7092	0,036781
2731,6733	0,036952
2732,6377	0,0370328
2733,6018	0,0370618
2734,5662	0,0370835
2735,5303	0,0371249
2736,4946	0,0371864
2737,4587	0,0372499
2738,4231	0,0372948
2739,3872	0,0373118
2740,3516	0,0373069
2741,3157	0,0372953
2742,2800	0,0372928
2743,2441	0,0373109
2744,2085	0,0373572
2745,1726	0,0374379
2746,1370	0,0375582
2747,1011	0,0377179
2748,0654	0,0379075
2749,0295	0,0381088
2749,9939	0,038302
2750,9580	0,0384752
2751,9224	0,0386277
2752,8865	0,0387645
2753,8508	0,0388857
2754,8149	0,0389809
2755,7793	0,0390373
2756,7434	0,039057
2757,7078	0,0390717
2758,6719	0,0391391
2759,6362	0,0393174
2760,6003	0,0396296
2761,5647	0,0400422
2762,5288	0,0404743
2763,4932	0,0408385
2764,4573	0,0410895
2765,4216	0,0412511
2766,3857	0,0414023
2767,3501	0,04163
2768,3142	0,0419768
2769,2786	0,0424163
2770,2427	0,0428709
2771,2070	0,0432597
2772,1711	0,0435466
2773,1355	0,0437599
2774,0996	0,043973
2775,0640	0,044261
2776,0281	0,0446602
2776,9924	0,0451522
2777,9565	0,0456784
2778,9209	0,0461732
2779,8850	0,0465974
2780,8494	0,0469543
2781,8135	0,047284
2782,7778	0,0476419
2783,7419	0,0480728
2784,7063	0,0485938
2785,6704	0,0491924
2786,6348	0,0498379
2787,5989	0,050499
2788,5632	0,0511584
2789,5273	0,0518155
2790,4917	0,052478
2791,4558	0,0531479
2792,4202	0,0538107
2793,3843	0,0544379
2794,3486	0,0550015
2795,3127	0,0554951
2796,2771	0,0559482
2797,2412	0,0564229
2798,2056	0,0569924
2799,1697	0,0577099
2800,1340	0,0585859
2801,0981	0,0595873
2802,0625	0,0606568
2803,0266	0,061742
2803,9910	0,0628138
2804,9551	0,0638661
2805,9194	0,0649021
2806,8835	0,0659216
2807,8479	0,0669212
2808,8120	0,0679064
2809,7764	0,0689011
2810,7405	0,0699469
2811,7048	0,0710884
2812,6689	0,072358
2813,6333	0,0737696
2814,5974	0,0753238
2815,5618	0,0770159
2816,5259	0,0788397
2817,4902	0,0807844
2818,4543	0,0828337
2819,4187	0,0849732
2820,3828	0,0872029
2821,3472	0,0895452
2822,3113	0,0920403
2823,2756	0,0947304
2824,2397	0,0976468
2825,2041	0,100812
2826,1682	0,104259
2827,1326	0,108051
2828,0967	0,112288
2829,0610	0,117094
2830,0251	0,12258
2830,9895	0,128826
2831,9536	0,135877
2832,9180	0,143784
2833,8821	0,152657
2834,8464	0,162722
2835,8105	0,174325
2836,7749	0,187913
2837,7390	0,203983
2838,7034	0,22306
2839,6675	0,245717
2840,6318	0,27261
2841,5959	0,304438
2842,5603	0,341684
2843,5244	0,384046
2844,4888	0,429516
2845,4529	0,473378
2846,4172	0,507915
2847,3813	0,524253
2848,3457	0,516754
2849,3098	0,486891
2850,2742	0,442382
2851,2383	0,392542
2852,2026	0,344446
2853,1667	0,301845
2854,1311	0,265836
2855,0952	0,235986
2856,0596	0,211273
2857,0237	0,190687
2857,9880	0,173468
2858,9521	0,159102
2859,9165	0,147207
2860,8806	0,137437
2861,8450	0,129463
2862,8091	0,123014
2863,7734	0,117922
2864,7375	0,114117
2865,7019	0,111569
2866,6660	0,110202
2867,6304	0,109852
2868,5945	0,110272
2869,5588	0,111201
2870,5229	0,11245
2871,4873	0,113951
2872,4514	0,115745
2873,4158	0,117925
2874,3799	0,120567
2875,3442	0,123699
2876,3083	0,127306
2877,2727	0,131367
2878,2368	0,135885
2879,2012	0,140879
2880,1653	0,146356
2881,1296	0,15229
2882,0938	0,158611
2883,0581	0,16524
2884,0222	0,172115
2884,9866	0,179203
2885,9507	0,186489
2886,9150	0,193942
2887,8792	0,201496
2888,8435	0,209069
2889,8076	0,216593
2890,7720	0,224051
2891,7361	0,231473
2892,7004	0,238907
2893,6646	0,246382
2894,6289	0,253889
2895,5930	0,261419
2896,5574	0,269011
2897,5215	0,276807
2898,4858	0,285046
2899,4500	0,294008
2900,4143	0,303937
2901,3784	0,314973
2902,3428	0,327165
2903,3069	0,340559
2904,2712	0,355311
2905,2354	0,371769
2906,1997	0,390423
2907,1638	0,41171
2908,1282	0,435677
2909,0923	0,461617
2910,0566	0,487802
2911,0208	0,511512
2911,9851	0,529534
2912,9492	0,539085
2913,9136	0,53879
2914,8777	0,529088
2915,8420	0,511826
2916,8062	0,489369
2917,7705	0,463842
2918,7346	0,436815
2919,6990	0,409354
2920,6631	0,382214
2921,6274	0,355981
2922,5916	0,331098
2923,5559	0,307841
2924,5200	0,286303
2925,4844	0,266431
2926,4485	0,248099
2927,4128	0,231175
2928,3770	0,215553
2929,3413	0,201142
2930,3054	0,187846
2931,2698	0,175562
2932,2339	0,164186
2933,1982	0,153629
2934,1624	0,143812
2935,1267	0,134666
2936,0908	0,126126
2937,0552	0,118143
2938,0193	0,110705
2938,9836	0,103834
2939,9478	0,097566
2940,9121	0,0919183
2941,8762	0,0868676
2942,8406	0,0823614
2943,8047	0,0783515
2944,7690	0,0748252
2945,7332	0,0718107
2946,6975	0,0693496
2947,6616	0,0674565
2948,6260	0,0660881
2949,5901	0,0651413
2950,5544	0,0644764
2951,5186	0,063953
2952,4829	0,0634599
2953,4470	0,0629292
2954,4114	0,0623338
2955,3755	0,0616715
2956,3398	0,0609438
2957,3040	0,0601374
2958,2683	0,0592194
2959,2324	0,0581491
2960,1968	0,0569024
2961,1609	0,0554938
2962,1252	0,0539795
2963,0894	0,0524353
2964,0537	0,0509195
2965,0178	0,0494433
2965,9822	0,0479691
2966,9463	0,0464424
2967,9106	0,0448367
2968,8748	0,0431834
2969,8391	0,0415642
2970,8032	0,0400697
2971,7676	0,0387546
2972,7317	0,0376204
2973,6960	0,0366371
2974,6602	0,0357834
2975,6245	0,0350711
2976,5886	0,0345293
2977,5530	0,0341599
2978,5171	0,0339014
2979,4814	0,0336349
2980,4456	0,0332356
2981,4099	0,0326383
2982,3740	0,0318711
2983,3384	0,0310384
2984,3025	0,0302672
2985,2668	0,0296555
2986,2310	0,0292485
2987,1953	0,0290428
2988,1594	0,0290021
2989,1238	0,0290681
2990,0879	0,0291633
2991,0522	0,0291982
2992,0164	0,029093
2992,9807	0,0288098
2993,9448	0,0283776
2994,9092	0,02789
2995,8733	0,0274694
2996,8376	0,0272115
2997,8018	0,0271416
2998,7661	0,0272051
2999,7302	0,0272989
3000,6946	0,0273235
3001,6587	0,027227
3002,6230	0,0270182
3003,5872	0,0267468
3004,5515	0,0264701
3005,5156	0,0262321
3006,4800	0,0260641
3007,4441	0,0259968
3008,4084	0,0260591
3009,3726	0,0262549
3010,3369	0,0265331
3011,3010	0,0267817
3012,2654	0,0268669
3013,2295	0,0267017
3014,1938	0,0263011
3015,1580	0,025783
3016,1223	0,0253102
3017,0864	0,0250115
3018,0508	0,0249294
3019,0149	0,0250206
3019,9792	0,0251986
3020,9434	0,0253803
3021,9077	0,0255097
3022,8718	0,0255554
3023,8362	0,0255008
3024,8003	0,0253452
3025,7646	0,0251122
3026,7288	0,0248518
3027,6931	0,0246224
3028,6572	0,0244613
3029,6216	0,0243662
3030,5857	0,0243038
3031,5500	0,0242416
3032,5142	0,0241772
3033,4785	0,0241434
3034,4426	0,024184
3035,4070	0,0243208
3036,3711	0,0245369
3037,3354	0,0247857
3038,2996	0,0250143
3039,2639	0,0251825
3040,2280	0,0252672
3041,1924	0,0252575
3042,1565	0,0251518
3043,1208	0,0249636
3044,0850	0,0247289
3045,0493	0,0245025
3046,0134	0,0243391
3046,9778	0,0242696
3047,9419	0,0242873
3048,9063	0,0243544
3049,8704	0,0244243
3050,8347	0,0244627
3051,7988	0,0244542
3052,7632	0,0243943
3053,7273	0,0242777
3054,6917	0,024096
3055,6558	0,0238499
3056,6201	0,0235645
3057,5842	0,0232959
3058,5486	0,0231181
3059,5127	0,0230931
3060,4771	0,0232406
3061,4412	0,0235224
3062,4055	0,0238525
3063,3696	0,0241307
3064,3340	0,0242833
3065,2981	0,0242917
3066,2625	0,0241944
3067,2266	0,0240672
3068,1909	0,0239922
3069,1550	0,0240325
3070,1194	0,0242137
3071,0835	0,0245133
3072,0479	0,0248575
3073,0120	0,0251347
3073,9763	0,0252319
3074,9404	0,0250854
3075,9048	0,0247215
3076,8689	0,0242552
3077,8333	0,0238388
3078,7974	0,0235862
3079,7617	0,0235192
3080,7258	0,0235672
3081,6902	0,0236186
3082,6543	0,0235867
3083,6187	0,023448
3084,5828	0,0232379
3085,5471	0,023016
3086,5112	0,0228332
3087,4756	0,0227165
3088,4397	0,022672
3089,4041	0,0226911
3090,3682	0,0227532
3091,3325	0,022829
3092,2966	0,0228917
3093,2610	0,0229325
3094,2251	0,0229686
3095,1895	0,02303
3096,1536	0,0231312
3097,1179	0,0232494
3098,0820	0,0233319
3099,0464	0,0233295
3100,0105	0,0232322
3100,9749	0,0230769
3101,9390	0,0229187
3102,9033	0,0227879
3103,8674	0,0226672
3104,8318	0,0225097
3105,7959	0,0222851
3106,7603	0,0220164
3107,7244	0,0217796
3108,6887	0,0216629
3109,6528	0,0217166
3110,6172	0,0219262
3111,5813	0,0222256
3112,5457	0,0225347
3113,5098	0,0227943
3114,4741	0,0229771
3115,4382	0,0230759
3116,4026	0,0230848
3117,3667	0,0229941
3118,3311	0,0228022
3119,2952	0,0225331
3120,2595	0,0222425
3121,2236	0,0220041
3122,1880	0,02188
3123,1521	0,021894
3124,1165	0,0220211
3125,0806	0,0222005
3126,0449	0,0223642
3127,0090	0,0224664
3127,9734	0,0224987
3128,9375	0,0224862
3129,9019	0,0224693
3130,8660	0,0224805
3131,8303	0,0225275
3132,7944	0,0225889
3133,7588	0,0226242
3134,7229	0,0225948
3135,6873	0,0224857
3136,6514	0,0223181
3137,6157	0,0221438
3138,5798	0,0220243
3139,5442	0,0220015
3140,5083	0,0220785
3141,4727	0,02222
3142,4368	0,0223736
3143,4011	0,0224988
3144,3652	0,0225861
3145,3296	0,022655
3146,2937	0,0227317
3147,2581	0,0228222
3148,2222	0,0229003
3149,1865	0,0229206
3150,1506	0,0228528
3151,1150	0,022712
3152,0791	0,0225641
3153,0435	0,0224953
3154,0076	0,0225615
3154,9719	0,0227515
3155,9360	0,0229893
3156,9004	0,0231805
3157,8645	0,0232707
3158,8289	0,023274
3159,7930	0,0232487
3160,7573	0,0232384
3161,7214	0,0232273
3162,6858	0,0231505
3163,6499	0,0229557
3164,6143	0,0226677
3165,5784	0,0223982
3166,5427	0,0222835
3167,5068	0,022392
3168,4712	0,0226714
3169,4353	0,0229795
3170,3997	0,0231796
3171,3638	0,023231
3172,3281	0,0232079
3173,2922	0,0232365
3174,2566	0,0234
3175,2207	0,0236823
3176,1851	0,0239833
3177,1492	0,0241859
3178,1135	0,0242233
3179,0776	0,0241039
3180,0420	0,0238909
3181,0061	0,0236649
3181,9705	0,0234963
3182,9346	0,023432
3183,8989	0,0234841
3184,8630	0,0236169
3185,8274	0,023745
3186,7915	0,0237626
3187,7559	0,0235991
3188,7200	0,0232694
3189,6843	0,0228784
3190,6484	0,0225711
3191,6128	0,0224555
3192,5769	0,0225513
3193,5413	0,0227937
3194,5054	0,0230859
3195,4697	0,0233558
3196,4338	0,0235788
3197,3982	0,023759
3198,3623	0,0238949
3199,3267	0,0239637
3200,2908	0,0239381
3201,2551	0,0238168
3202,2192	0,0236423
3203,1836	0,0234887
3204,1477	0,0234285
3205,1121	0,023498
3206,0762	0,0236796
3207,0405	0,0239068
3208,0046	0,0240893
3208,9690	0,0241501
3209,9331	0,0240618
3210,8975	0,0238638
3211,8616	0,0236478
3212,8259	0,0235102
3213,7900	0,0234979
3214,7544	0,0235791
3215,7185	0,0236612
3216,6829	0,0236473
3217,6470	0,0234942
3218,6113	0,0232368
3219,5754	0,0229645
3220,5398	0,0227691
3221,5039	0,0227001
3222,4683	0,0227536
3223,4324	0,0228917
3224,3967	0,0230736
3225,3608	0,0232752
3226,3252	0,0234912
3227,2893	0,0237228
3228,2537	0,0239629
3229,2178	0,0241866
3230,1821	0,0243541
3231,1462	0,0244261
3232,1106	0,0243883
3233,0747	0,02427
3234,0391	0,0241439
3235,0032	0,0241001
3235,9675	0,0242073
3236,9316	0,0244797
3237,8960	0,0248682
3238,8601	0,0252792
3239,8245	0,0256078
3240,7886	0,0257708
3241,7529	0,0257303
3242,7170	0,0255072
3243,6814	0,0251819
3244,6455	0,0248718
3245,6099	0,024684
3246,5740	0,0246614
3247,5383	0,0247582
3248,5024	0,0248683
3249,4668	0,0248929
3250,4309	0,0248027
3251,3953	0,0246508
3252,3594	0,0245242
3253,3237	0,0244697
3254,2878	0,0244551
3255,2522	0,0244008
3256,2163	0,0242592
3257,1807	0,0240736
3258,1448	0,0239661
3259,1091	0,0240571
3260,0732	0,0243757
3261,0376	0,0248264
3262,0017	0,0252365
3262,9661	0,0254522
3263,9302	0,0254174
3264,8945	0,0251884
3265,8586	0,0248859
3266,8230	0,0246234
3267,7871	0,0244592
3268,7515	0,0243928
3269,7156	0,0243943
3270,6799	0,024439
3271,6440	0,0245239
3272,6084	0,0246609
3273,5725	0,024857
3274,5369	0,0250947
3275,5010	0,025327
3276,4653	0,0254897
3277,4294	0,0255268
3278,3938	0,0254136
3279,3579	0,025166
3280,3223	0,0248316
3281,2864	0,0244695
3282,2507	0,0241345
3283,2148	0,0238727
3284,1792	0,0237265
3285,1433	0,0237354
3286,1077	0,0239222
3287,0718	0,0242685
3288,0361	0,0247004
3289,0002	0,025102
3289,9646	0,0253601
3290,9287	0,025416
3291,8931	0,0252923
3292,8572	0,0250755
3293,8215	0,0248675
3294,7856	0,0247371
3295,7500	0,0247038
3296,7141	0,024755
3297,6785	0,0248762
3298,6426	0,0250651
3299,6069	0,0253178
3300,5710	0,0255994
3301,5354	0,025831
3302,4995	0,0259133
3303,4639	0,0257831
3304,4280	0,0254661
3305,3923	0,0250864
3306,3564	0,0248168
3307,3208	0,0247911
3308,2849	0,0250298
3309,2493	0,0254244
3310,2134	0,0257933
3311,1777	0,0259779
3312,1418	0,025922
3313,1062	0,0256899
3314,0703	0,0254171
3315,0347	0,0252337
3315,9988	0,025205
3316,9631	0,0253216
3317,9272	0,0255299
3318,8916	0,0257752
3319,8557	0,0260247
3320,8201	0,0262632
3321,7842	0,0264724
3322,7485	0,0266182
3323,7126	0,0266582
3324,6770	0,0265652
3325,6411	0,0263484
3326,6055	0,0260564
3327,5696	0,0257606
3328,5339	0,0255283
3329,4980	0,025401
3330,4624	0,025387
3331,4265	0,0254651
3332,3909	0,0255948
3333,3550	0,0257275
3334,3193	0,0258178
3335,2834	0,0258351
3336,2478	0,0257738
3337,2119	0,0256547
3338,1763	0,0255159
3339,1404	0,0253968
3340,1047	0,0253228
3341,0688	0,0253003
3342,0332	0,0253208
3342,9973	0,0253706
3343,9617	0,0254372
3344,9258	0,0255107
3345,8901	0,0255803
3346,8542	0,0256299
3347,8186	0,0256378
3348,7827	0,0255808
3349,7471	0,0254464
3350,7112	0,0252465
3351,6755	0,0250268
3352,6396	0,0248611
3353,6040	0,0248262
3354,5681	0,0249651
3355,5325	0,0252606
3356,4966	0,0256389
3357,4609	0,0260087
3358,4250	0,0263098
3359,3894	0,0265387
3360,3535	0,0267312
3361,3179	0,0269149
3362,2820	0,0270697
3363,2463	0,0271259
3364,2104	0,0270057
3365,1748	0,0266809
3366,1389	0,0262086
3367,1033	0,0257171
3368,0674	0,0253506
3369,0317	0,0252033
3369,9958	0,0252772
3370,9602	0,025484
3371,9243	0,0256878
3372,8887	0,0257707
3373,8528	0,0256912
3374,8171	0,0255036
3375,7813	0,025323
3376,7456	0,0252532
3377,7097	0,0253208
3378,6741	0,0254616
3379,6382	0,0255693
3380,6025	0,0255736
3381,5667	0,0254909
3382,5310	0,0254122
3383,4951	0,0254357
3384,4595	0,0255944
3385,4236	0,0258322
3386,3879	0,0260427
3387,3521	0,0261413
3388,3164	0,0261152
3389,2805	0,0260204
3390,2449	0,0259366
3391,2090	0,0259166
3392,1733	0,0259625
3393,1375	0,0260383
3394,1018	0,0260995
3395,0659	0,0261172
3396,0303	0,0260867
3396,9944	0,026024
3397,9587	0,0259584
3398,9229	0,0259228
3399,8872	0,0259417
3400,8513	0,0260175
3401,8157	0,0261249
3402,7798	0,0262201
3403,7441	0,0262641
3404,7083	0,0262468
3405,6726	0,0261943
3406,6367	0,0261515
3407,6011	0,0261485
3408,5652	0,0261748
3409,5295	0,0261789
3410,4937	0,0260974
3411,4580	0,0258966
3412,4221	0,0256016
3413,3865	0,0252927
3414,3506	0,0250671
3415,3149	0,0249886
3416,2791	0,0250532
3417,2434	0,0251931
3418,2075	0,0253166
3419,1719	0,0253637
3420,1360	0,025343
3421,1003	0,0253232
3422,0645	0,0253803
3423,0288	0,0255376
3423,9929	0,0257417
3424,9573	0,0258916
3425,9214	0,0259004
3426,8857	0,025751
3427,8499	0,0255109
3428,8142	0,0252979
3429,7783	0,0252178
3430,7427	0,0253139
3431,7068	0,0255539
3432,6711	0,0258545
3433,6353	0,026125
3434,5996	0,0263047
3435,5637	0,0263811
3436,5281	0,0263848
3437,4922	0,0263685
3438,4565	0,0263792
3439,4207	0,0264366
3440,3850	0,0265261
3441,3491	0,0266106
3442,3135	0,0266547
3443,2776	0,0266441
3444,2419	0,0265889
3445,2061	0,02651
3446,1704	0,0264218
3447,1345	0,0263272
3448,0989	0,0262248
3449,0630	0,0261208
3450,0273	0,0260273
3450,9915	0,0259483
3451,9558	0,0258656
3452,9199	0,0257443
3453,8843	0,0255591
3454,8484	0,025327
3455,8127	0,0251181
3456,7769	0,0250278
3457,7412	0,0251207
3458,7053	0,0253817
3459,6697	0,0257058
3460,6338	0,0259406
3461,5981	0,0259614
3462,5623	0,0257374
3463,5266	0,0253504
3464,4907	0,0249542
3465,4551	0,0247011
3466,4192	0,0246778
3467,3835	0,0248786
3468,3477	0,0252223
3469,3120	0,0255934
3470,2761	0,0258827
3471,2405	0,0260136
3472,2046	0,0259542
3473,1689	0,0257229
3474,1331	0,0253885
3475,0974	0,0250564
3476,0615	0,0248373
3477,0259	0,0248095
3477,9900	0,0249941
3478,9543	0,0253527
3479,9185	0,0258033
3480,8828	0,0262423
3481,8469	0,026569
3482,8113	0,0267068
3483,7754	0,026622
3484,7397	0,0263359
3485,7039	0,0259275
3486,6682	0,0255181
3487,6323	0,025235
3488,5967	0,0251601
3489,5608	0,0252901
3490,5251	0,0255339
3491,4893	0,0257535
3492,4536	0,0258225
3493,4177	0,0256787
3494,3821	0,0253512
3495,3462	0,024951
3496,3105	0,0246236
3497,2747	0,0244803
3498,2390	0,0245465
3499,2031	0,0247555
3500,1675	0,0249899
3501,1316	0,0251484
3502,0959	0,0252045
3503,0601	0,0252186
3504,0244	0,0252844
3504,9885	0,0254471
3505,9529	0,0256576
3506,9170	0,0257951
3507,8813	0,0257405
3508,8455	0,0254571
3509,8098	0,0250312
3510,7739	0,0246366
3511,7383	0,0244381
3512,7024	0,0245011
3513,6667	0,024768
3514,6309	0,0251014
3515,5952	0,0253608
3516,5593	0,025469
3517,5237	0,0254357
3518,4878	0,025327
3519,4521	0,0252057
3520,4163	0,0250867
3521,3806	0,0249388
3522,3447	0,0247276
3523,3091	0,0244647
3524,2732	0,0242197
3525,2375	0,0240797
3526,2017	0,0240909
3527,1660	0,0242287
3528,1301	0,0244223
3529,0945	0,0246104
3530,0586	0,02478
3531,0229	0,0249544
3531,9871	0,0251469
3532,9514	0,0253243
3533,9155	0,0254141
3534,8799	0,0253508
3535,8440	0,0251283
3536,8083	0,0248141
3537,7725	0,0245107
3538,7368	0,0242984
3539,7009	0,0242085
3540,6653	0,0242414
3541,6294	0,0243992
3542,5938	0,0246972
3543,5579	0,0251348
3544,5222	0,0256493
3545,4863	0,0261035
3546,4507	0,0263398
3547,4148	0,026269
3548,3792	0,0259155
3549,3433	0,0253931
3550,3076	0,0248473
3551,2717	0,0244078
3552,2361	0,0241622
3553,2002	0,0241451
3554,1646	0,024338
3555,1287	0,0246745
3556,0930	0,0250486
3557,0571	0,0253292
3558,0215	0,025396
3558,9856	0,025202
3559,9500	0,024827
3560,9141	0,0244663
3561,8784	0,0243385
3562,8425	0,0245695
3563,8069	0,0251118
3564,7710	0,0257244
3565,7354	0,0260433
3566,6995	0,0257907
3567,6638	0,0250111
3568,6279	0,0240576
3569,5923	0,0233146
3570,5564	0,0229792
3571,5208	0,0230502
3572,4849	0,0234123
3573,4492	0,0239149
3574,4133	0,0244255
3575,3777	0,0248604
3576,3418	0,0251839
3577,3062	0,0253822
3578,2703	0,0254369
3579,2346	0,0253295
3580,1987	0,0250739
3581,1631	0,0247449
3582,1272	0,0244709
3583,0916	0,0243921
3584,0557	0,0246045
3585,0200	0,0251044
3585,9841	0,0257482
3586,9485	0,0262835
3587,9126	0,0264981
3588,8770	0,0263692
3589,8411	0,0260379
3590,8054	0,0256649
3591,7695	0,0253413
3592,7339	0,0250911
3593,6980	0,0249103
3594,6624	0,0247928
3595,6265	0,0247265
3596,5908	0,0246715
3597,5549	0,0245606
3598,5193	0,0243399
3599,4834	0,0240257
3600,4478	0,0237294
3601,4119	0,0236108
3602,3762	0,0237836
3603,3403	0,0242518
3604,3047	0,0249186
3605,2688	0,0256346
3606,2332	0,0262458
3607,1973	0,0266335
3608,1616	0,0267424
3609,1257	0,0265848
3610,0901	0,0262172
3611,0542	0,0257197
3612,0186	0,0251928
3612,9827	0,0247555
3613,9470	0,024523
3614,9111	0,0245687
3615,8755	0,0248909
3616,8396	0,0253914
3617,8040	0,0258746
3618,7681	0,026101
3619,7324	0,0259209
3620,6965	0,0253998
3621,6609	0,0247848
3622,6250	0,0243435
3623,5894	0,0242433
3624,5535	0,024522
3625,5178	0,0250908
3626,4819	0,025729
3627,4463	0,0261202
3628,4104	0,0260384
3629,3748	0,0255834
3630,3389	0,0250949
3631,3032	0,0248134
3632,2673	0,0247475
3633,2317	0,0247736
3634,1958	0,0247566
3635,1602	0,0246199
3636,1243	0,0243687
3637,0886	0,0240719
3638,0527	0,0238199
3639,0171	0,0236883
3639,9812	0,0237209
3640,9456	0,0239246
3641,9097	0,0242727
3642,8740	0,0247203
3643,8381	0,0252259
3644,8025	0,0257604
3645,7666	0,0262866
3646,7310	0,0267097
3647,6951	0,0268467
3648,6594	0,0265386
3649,6235	0,0258853
3650,5879	0,0252357
3651,5520	0,0248839
3652,5164	0,0249152
3653,4805	0,0252584
3654,4448	0,0257513
3655,4089	0,0261797
3656,3733	0,0263483
3657,3374	0,0261796
3658,3018	0,0257424
3659,2659	0,0251734
3660,2302	0,0245984
3661,1943	0,024125
3662,1587	0,0238639
3663,1228	0,0239111
3664,0872	0,0242932
3665,0513	0,0249308
3666,0156	0,0256499
3666,9797	0,0262288
3667,9441	0,0264793
3668,9082	0,0263712
3669,8726	0,0260986
3670,8367	0,0259345
3671,8010	0,0259987
3672,7651	0,0261908
3673,7295	0,0262796
3674,6936	0,0260489
3675,6580	0,0254682
3676,6221	0,0247487
3677,5864	0,0241499
3678,5505	0,0237796
3679,5149	0,0236083
3680,4790	0,0235755
3681,4434	0,0236501
3682,4075	0,0238336
3683,3718	0,0241367
3684,3359	0,0245567
3685,3003	0,025063
3686,2644	0,0255808
3687,2288	0,0259727
3688,1929	0,0260541
3689,1572	0,0257046
3690,1213	0,0250024
3691,0857	0,0241902
3692,0498	0,0235032
3693,0142	0,0230732
3693,9783	0,0229382
3694,9426	0,0230744
3695,9067	0,0234172
3696,8711	0,0238788
3697,8352	0,0243653
3698,7996	0,0247858
3699,7637	0,0250526
3700,7280	0,0250914
3701,6921	0,0248799
3702,6565	0,024489
3703,6206	0,0240722
3704,5850	0,0237972
3705,5491	0,0237774
3706,5134	0,024038
3707,4775	0,0245073
3708,4419	0,0250206
3709,4060	0,0253634
3710,3704	0,0253911
3711,3345	0,0251596
3712,2988	0,0248807
3713,2629	0,0247177
3714,2273	0,0246785
3715,1914	0,0246779
3716,1558	0,0246346
3717,1199	0,0245266
3718,0842	0,0243986
3719,0483	0,0243316
3720,0127	0,024384
3720,9768	0,0245398
3721,9412	0,024707
3722,9053	0,0247712
3723,8696	0,0246676
3724,8337	0,0244275
3725,7981	0,0241679
3726,7622	0,0240316
3727,7266	0,0241247
3728,6907	0,024492
3729,6550	0,0251243
3730,6191	0,0259564
3731,5835	0,0268413
3732,5476	0,0275187
3733,5120	0,0276578
3734,4761	0,02706
3735,4404	0,0259187
3736,4045	0,0247819
3737,3689	0,0241587
3738,3330	0,0242325
3739,2974	0,0249057
3740,2615	0,0259472
3741,2258	0,0270613
3742,1899	0,0278911
3743,1543	0,0280937
3744,1184	0,0275918
3745,0828	0,0267489
3746,0469	0,0260836
3747,0112	0,025867
3747,9753	0,0260784
3748,9397	0,0265383
3749,9038	0,0269911
3750,8682	0,0271951
3751,8323	0,0270796
3752,7966	0,0267784
3753,7607	0,0264681
3754,7251	0,0262434
3755,6892	0,0261131
3756,6536	0,0260335
3757,6177	0,0259399
3758,5820	0,0257846
3759,5461	0,0255729
3760,5105	0,0253566
3761,4746	0,0251887
3762,4390	0,0250868
3763,4031	0,0250325
3764,3674	0,0249946
3765,3315	0,0249539
3766,2959	0,024911
3767,2600	0,0248734
3768,2244	0,0248357
3769,1885	0,0247848
3770,1528	0,0247328
3771,1169	0,0247418
3772,0813	0,0249036
3773,0454	0,0252827
3774,0098	0,0258714
3774,9739	0,0265735
3775,9382	0,0272137
3776,9023	0,0275772
3777,8667	0,0275028
3778,8308	0,0270038
3779,7952	0,0262998
3780,7593	0,0256914
3781,7236	0,0253866
3782,6877	0,025416
3783,6521	0,0256529
3784,6162	0,0258931
3785,5806	0,0259632
3786,5447	0,0258177
3787,5090	0,0255618
3788,4731	0,025381
3789,4375	0,0254273
3790,4016	0,0257389
3791,3660	0,0262348
3792,3301	0,0267671
3793,2944	0,0271933
3794,2585	0,0274331
3795,2229	0,0274861
3796,1870	0,0274037
3797,1514	0,0272381
3798,1155	0,0270158
3799,0798	0,026758
3800,0439	0,0265236
3801,0083	0,0264165
3801,9724	0,0265167
3802,9368	0,0267966
3803,9009	0,0271209
3804,8652	0,0273146
3805,8293	0,0272365
3806,7937	0,0268546
3807,7578	0,0262929
3808,7222	0,0257691
3809,6863	0,0254462
3810,6506	0,0253545
3811,6147	0,0254273
3812,5791	0,0255672
3813,5432	0,0256999
3814,5076	0,025818
3815,4717	0,025996
3816,4360	0,0263345
3817,4001	0,0268645
3818,3645	0,0274981
3819,3286	0,0280496
3820,2930	0,0283191
3821,2571	0,0282244
3822,2214	0,0278735
3823,1855	0,0274704
3824,1499	0,027162
3825,1140	0,0269888
3826,0784	0,0269251
3827,0425	0,0269331
3828,0068	0,026991
3828,9709	0,0270913
3829,9353	0,0272226
3830,8994	0,0273545
3831,8638	0,0274435
3832,8279	0,0274534
3833,7922	0,0273791
3834,7563	0,0272575
3835,7207	0,027164
3836,6848	0,0271891
3837,6492	0,0273891
3838,6133	0,0277276
3839,5776	0,028064
3840,5417	0,0282173
3841,5061	0,0280543
3842,4702	0,0275502
3843,4346	0,026811
3844,3987	0,0260523
3845,3630	0,0255231
3846,3271	0,0254095
3847,2915	0,0257849
3848,2556	0,0266285
3849,2200	0,0278591
3850,1841	0,0293202
3851,1484	0,0306858
3852,1125	0,0313947
3853,0769	0,030956
3854,0410	0,0295942
3855,0054	0,0281383
3855,9697	0,0271843
3856,9338	0,0268378
3857,8982	0,02696
3858,8623	0,0273533
3859,8267	0,0278097
3860,7908	0,0281225
3861,7551	0,0281323
3862,7192	0,0278108
3863,6836	0,0273049
3864,6477	0,026859
3865,6121	0,0266742
3866,5762	0,0268288
3867,5405	0,0272797
3868,5046	0,0278831
3869,4690	0,0284205
3870,4331	0,028664
3871,3975	0,0284859
3872,3616	0,0279397
3873,3259	0,0272345
3874,2900	0,0266271
3875,2544	0,026315
3876,2185	0,0263783
3877,1829	0,0267695
3878,1470	0,0273342
3879,1113	0,0278616
3880,0754	0,0281705
3881,0398	0,0281903
3882,0039	0,0279723
3882,9683	0,0276302
3883,9324	0,0272834
3884,8967	0,0270447
3885,8608	0,0270146
3886,8252	0,0272482
3887,7893	0,0277129
3888,7537	0,0282765
3889,7178	0,0287361
3890,6821	0,0288985
3891,6462	0,028713
3892,6106	0,0283524
3893,5747	0,0281078
3894,5391	0,0281864
3895,5032	0,0286113
3896,4675	0,0292472
3897,4316	0,029865
3898,3960	0,0302236
3899,3601	0,0301801
3900,3245	0,0297746
3901,2886	0,0292028
3902,2529	0,0286862
3903,2170	0,0283535
3904,1814	0,0282068
3905,1455	0,0281655
3906,1099	0,0281346
3907,0740	0,0280509
3908,0383	0,0278959
3909,0024	0,0276921
3909,9668	0,0274911
3910,9309	0,0273501
3911,8953	0,0273018
3912,8594	0,0273326
3913,8237	0,0273869
3914,7878	0,0273968
3915,7522	0,0273243
3916,7163	0,0271928
3917,6807	0,0270824
3918,6448	0,0270794
3919,6091	0,0272161
3920,5732	0,0274488
3921,5376	0,0276787
3922,5017	0,0277967
3923,4661	0,0277363
3924,4302	0,0275197
3925,3945	0,0272617
3926,3586	0,0271127
3927,3230	0,0271808
3928,2871	0,0274838
3929,2515	0,0279456
3930,2156	0,0284259
3931,1799	0,0287757
3932,1440	0,0289061
3933,1084	0,0288282
3934,0725	0,0286297
3935,0369	0,0284158
3936,0010	0,0282625
3936,9653	0,0282011
3937,9294	0,0282226
3938,8938	0,0282911
3939,8579	0,0283644
3940,8223	0,0284189
3941,7864	0,0284677
3942,7507	0,0285511
3943,7148	0,0286981
3944,6792	0,0288871
3945,6433	0,0290406
3946,6077	0,0290635
3947,5718	0,028903
3948,5361	0,0285948
3949,5002	0,0282558
3950,4646	0,0280144
3951,4287	0,0279312
3952,3931	0,027974
3953,3572	0,0280584
3954,3215	0,0281113
3955,2856	0,0281079
3956,2500	0,0280605
3957,2141	0,0279769
3958,1785	0,0278286
3959,1426	0,0275646
3960,1069	0,0271641
3961,0710	0,0266839
3962,0354	0,0262565
3962,9995	0,0260284
3963,9639	0,0260833
3964,9280	0,026405
3965,8923	0,0269005
3966,8564	0,0274561
3967,8208	0,0279847
3968,7849	0,0284367
3969,7493	0,0287813
3970,7134	0,0289867
3971,6777	0,0290258
3972,6418	0,0289013
3973,6062	0,0286637
3974,5703	0,0283971
3975,5347	0,0281764
3976,4988	0,0280314
3977,4631	0,0279474
3978,4272	0,0279008
3979,3916	0,0278946
3980,3557	0,0279625
3981,3201	0,0281362
3982,2842	0,0284069
3983,2485	0,0287159
3984,2126	0,0289832
3985,1770	0,0291501
3986,1411	0,0291988
3987,1055	0,0291402
3988,0696	0,0289893
3989,0339	0,0287566
3989,9980	0,0284649
3990,9624	0,0281698
3991,9265	0,0279542
3992,8909	0,0278904
3993,8550	0,027996
3994,8193	0,0282207
3995,7834	0,0284803
3996,7478	0,0287133
3997,7119	0,028916
3998,6763	0,0291256
3999,6404	0,0293666
4000,6047	0,0295925

##### Extended Information
[Comments]
Sample name	ldpe sbc 818 0
Comment
User
Division
Company	PP

[Detailed Information]
Creation date	2021-06-10 11:03

Data array type	Linear data array
Horizontal axis	Wavenumber [cm-1]
Vertical axis	Abs
Start	399,193 cm-1
End	4000,6 cm-1
Data interval	0,964233 cm-1
Data points	3736    

[Measurement Information]
Model Name	FT/IR-4600typeA
Serial Number	D085761786

Accessory	ATR PRO ONE
Accessory S/N	B088061809
Incident angle	45 deg

Measurement Date	2021-05-06 10:31

Light Source	Standard
Detector	TGS
Accumulation	32
Resolution	4 cm-1
Zero Filling	On
Apodization	Cosine
Gain	Auto (16)
Aperture	Auto (7.1 mm)
Scanning Speed	4 mm/sec
Filter	Auto (30000 Hz)

