#EXPORTTYPE:DATA SINGLE
#FILE:1-90.ngb-sd7
#FORMAT:NETZSCH5
#FTYPE:ANSI
#IDENTITY:1-90
#DECIMAL:POINT
#SEPARATOR:SEMICOLON
#MTYPE:DSC
#INSTRUMENT:NETZSCH DSC 204F1 Phoenix
#PROJECT:
#DATE/TIME:17.09.2021 06:54
#CORR. FILE:
#TEMPCAL:17-02-2021 11:55
#SENSITIVITY:17-02-2021 11:55
#LABORATORY:1
#OPERATOR:
#REMARK:
#SAMPLE:1-90
#SAMPLE MASS /mg:4.98
#MATERIAL:
#REFERENCE:empty
#REFERENCE MASS /mg:0
#TYPE OF CRUCIBLE:Standard Al 25 µl, pierced lid
#SAMPLE CRUCIBLE MASS /mg:39.51
#REFERENCE CRUCIBLE MASS /mg:40
#M.RANGE /µV:5000
#TAU-R:17-02-2021 11:55
#CORR. CODE:050
#EXO:-1
#RANGE:-30°C/10,0(K/min)/200°C
#SEGMENT:S7/9
#SEG. 7:-30°C/10,0(K/min)/200°C

##Temp./°C;Time/min;DSC/(mW/mg);Sensit./(uV/mW)
  9.33910; 91.00083;-8.719357e-02;3.42446
 10.33910; 94.79588;-7.542441e-02;3.43225
 11.33910; 94.98792; 8.680452e-02;3.43994
 12.33910; 95.14046;      0.19373;3.44754
 13.33910; 95.27494;      0.26920;3.45504
 14.33910; 95.39907;      0.32605;3.46244
 15.33910; 95.51663;      0.36918;3.46975
 16.33910; 95.62982;      0.40262;3.47695
 17.33910; 95.73994;      0.42886;3.48406
 18.33910; 95.84787;      0.45113;3.49108
 19.33910; 95.95435;      0.46623;3.49799
 20.33910; 96.05970;      0.48209;3.50481
 21.33910; 96.16420;      0.49307;3.51153
 22.33910; 96.26822;      0.50441;3.51816
 23.33910; 96.37188;      0.51173;3.52468
 24.33910; 96.47529;      0.52135;3.53111
 25.33910; 96.57845;      0.52777;3.53744
 26.33910; 96.68154;      0.53493;3.54367
 27.33910; 96.78456;      0.54220;3.54981
 28.33910; 96.88756;      0.54846;3.55584
 29.33910; 96.99053;      0.55357;3.56178
 30.33910; 97.09345;      0.56050;3.56762
 31.33910; 97.19635;      0.56601;3.57336
 32.33910; 97.29922;      0.57180;3.57901
 33.33910; 97.40208;      0.57737;3.58455
 34.33910; 97.50496;      0.58190;3.59000
 35.33910; 97.60788;      0.58787;3.59535
 36.33910; 97.71079;      0.59184;3.60061
 37.33910; 97.81371;      0.59810;3.60576
 38.33910; 97.91666;      0.60195;3.61082
 39.33910; 98.01955;      0.60757;3.61578
 40.33910; 98.12243;      0.61204;3.62064
 41.33910; 98.22534;      0.61666;3.62540
 42.33910; 98.32818;      0.62153;3.63007
 43.33910; 98.43101;      0.62578;3.63464
 44.33910; 98.53380;      0.63086;3.63911
 45.33910; 98.63655;      0.63481;3.64348
 46.33910; 98.73929;      0.63848;3.64776
 47.33910; 98.84196;      0.64247;3.65194
 48.33910; 98.94462;      0.64639;3.65602
 49.33910; 99.04721;      0.64923;3.66001
 50.33910; 99.14975;      0.65212;3.66390
 51.33910; 99.25228;      0.65433;3.66769
 52.33910; 99.35481;      0.65733;3.67139
 53.33910; 99.45732;      0.66031;3.67499
 54.33910; 99.55985;      0.66225;3.67849
 55.33910; 99.66243;      0.66546;3.68190
 56.33910; 99.76503;      0.66831;3.68521
 57.33910; 99.86766;      0.67100;3.68843
 58.33910; 99.97031;      0.67330;3.69155
 59.33910;100.07300;      0.67728;3.69457
 60.33910;100.17571;      0.68121;3.69750
 61.33910;100.27845;      0.68392;3.70034
 62.33910;100.38118;      0.68881;3.70308
 63.33910;100.48394;      0.69204;3.70573
 64.33910;100.58674;      0.69621;3.70828
 65.33910;100.68948;      0.70106;3.71074
 66.33910;100.79220;      0.70585;3.71310
 67.33910;100.89491;      0.70922;3.71537
 68.33910;100.99764;      0.71367;3.71755
 69.33910;101.10039;      0.71942;3.71963
 70.33910;101.20314;      0.72480;3.72163
 71.33910;101.30595;      0.73053;3.72353
 72.33910;101.40875;      0.73603;3.72533
 73.33910;101.51160;      0.74269;3.72705
 74.33910;101.61443;      0.74879;3.72867
 75.33910;101.71725;      0.75579;3.73021
 76.33910;101.82003;      0.76330;3.73165
 77.33910;101.92286;      0.77007;3.73300
 78.33910;102.02566;      0.77736;3.73426
 79.33910;102.12853;      0.78426;3.73543
 80.33910;102.23135;      0.79228;3.73651
 81.33910;102.33421;      0.80021;3.73750
 82.33910;102.43713;      0.80789;3.73841
 83.33910;102.54008;      0.81663;3.73922
 84.33910;102.64303;      0.82547;3.73995
 85.33910;102.74599;      0.83546;3.74058
 86.33910;102.84900;      0.84426;3.74113
 87.33910;102.95206;      0.85460;3.74160
 88.33910;103.05512;      0.86635;3.74197
 89.33910;103.15820;      0.87814;3.74226
 90.33910;103.26131;      0.89046;3.74247
 91.33910;103.36437;      0.90314;3.74258
 92.33910;103.46746;      0.91782;3.74262
 93.33910;103.57057;      0.93229;3.74256
 94.33910;103.67368;      0.94662;3.74243
 95.33910;103.77683;      0.96226;3.74220
 96.33910;103.88007;      0.98082;3.74190
 97.33910;103.98335;      0.99961;3.74151
 98.33910;104.08678;      1.01960;3.74104
 99.33910;104.19036;      1.04393;3.74049
100.33910;104.29411;      1.07527;3.73985
101.33910;104.39814;      1.11700;3.73914
102.33910;104.50279;      1.17249;3.73834
103.33910;104.60818;      1.25104;3.73746
104.33910;104.71457;      1.35940;3.73651
105.33910;104.82226;      1.49629;3.73547
106.33910;104.93036;      1.62641;3.73435
107.33910;105.03677;      1.69237;3.73316
108.33910;105.14020;      1.67772;3.73188
109.33910;105.23963;      1.54319;3.73053
110.33910;105.33437;      1.27504;3.72910
111.33910;105.42359;      0.89815;3.72760
112.33910;105.51495;      0.71057;3.72602
113.33910;105.61235;      0.64684;3.72436
114.33910;105.71285;      0.61795;3.72263
115.33910;105.81473;      0.60749;3.72083
116.33910;105.91710;      0.60420;3.71895
117.33910;106.01962;      0.60478;3.71699
118.33910;106.12219;      0.60536;3.71497
119.33910;106.22487;      0.60628;3.71287
120.33910;106.32756;      0.60697;3.71070
121.33910;106.43021;      0.60863;3.70845
122.33910;106.53294;      0.60906;3.70614
123.33910;106.63566;      0.61004;3.70376
124.33910;106.73831;      0.61195;3.70130
125.33910;106.84100;      0.61348;3.69878
126.33910;106.94364;      0.61491;3.69619
127.33910;107.04633;      0.61656;3.69353
128.33910;107.14901;      0.61735;3.69081
129.33910;107.25165;      0.61894;3.68801
130.33910;107.35430;      0.62002;3.68515
131.33910;107.45701;      0.62168;3.68223
132.33910;107.55967;      0.62364;3.67924
133.33910;107.66236;      0.62483;3.67619
134.33910;107.76506;      0.62639;3.67307
135.33910;107.86774;      0.62779;3.66989
136.33910;107.97044;      0.62887;3.66664
137.33910;108.07312;      0.63136;3.66334
138.33910;108.17586;      0.63119;3.65997
139.33910;108.27862;      0.63372;3.65654
140.33910;108.38139;      0.63533;3.65305
141.33910;108.48417;      0.63637;3.64950
142.33910;108.58693;      0.63789;3.64589
143.33910;108.68972;      0.63919;3.64223
144.33910;108.79254;      0.64135;3.63851
145.33910;108.89538;      0.64297;3.63473
146.33910;108.99825;      0.64517;3.63089
147.33910;109.10108;      0.64762;3.62700
148.33910;109.20383;      0.64946;3.62305
149.33910;109.30666;      0.65036;3.61905
150.33910;109.40947;      0.65274;3.61499
151.33910;109.51226;      0.65441;3.61088
152.33910;109.61509;      0.65664;3.60672
153.33910;109.71788;      0.65808;3.60250
154.33910;109.82072;      0.66003;3.59824
155.33910;109.92357;      0.66254;3.59392
156.33910;110.02640;      0.66492;3.58956
157.33910;110.12924;      0.66648;3.58514
158.33910;110.23211;      0.66863;3.58068
159.33910;110.33499;      0.67046;3.57617
160.33910;110.43791;      0.67282;3.57161
161.33910;110.54084;      0.67494;3.56700
162.33910;110.64378;      0.67806;3.56235
163.33910;110.74674;      0.67994;3.55765
164.33910;110.84975;      0.68195;3.55291
165.33910;110.95280;      0.68514;3.54813
166.33910;111.05593;      0.68762;3.54330
167.33910;111.15910;      0.69041;3.53843
168.33910;111.26231;      0.69292;3.53351
169.33910;111.36552;      0.69638;3.52856
170.33910;111.46874;      0.69878;3.52356
171.33910;111.57197;      0.70177;3.51853
172.33910;111.67517;      0.70499;3.51345
173.33910;111.77834;      0.70725;3.50834
174.33910;111.88150;      0.71054;3.50319
175.33910;111.98466;      0.71371;3.49800
176.33910;112.08774;      0.71611;3.49278
177.33910;112.19084;      0.71935;3.48752
178.33910;112.29392;      0.72245;3.48223
179.33910;112.39702;      0.72549;3.47690
180.33910;112.50012;      0.72840;3.47154
181.33910;112.60321;      0.73125;3.46614
182.33910;112.70633;      0.73318;3.46071
183.33910;112.80941;      0.73570;3.45525
184.33910;112.91242;      0.73907;3.44976
185.33910;113.01535;      0.74200;3.44424
186.33910;113.11829;      0.74455;3.43869
187.33910;113.22115;      0.74740;3.43311
188.33910;113.32403;      0.75058;3.42751
189.33910;113.42694;      0.75237;3.42187
190.33910;113.52989;      0.75512;3.41621
191.33910;113.63285;      0.75722;3.41053
192.33910;113.73580;      0.75984;3.40481
193.33910;113.83876;      0.76230;3.39908
194.33910;113.94176;      0.76388;3.39331

