Created as New Dataset,PE pellet 124kDa Alfa Aesar
cm-1,%T
4000.00,99.72
3999.00,99.72
3998.00,99.73
3997.00,99.73
3996.00,99.72
3995.00,99.72
3994.00,99.72
3993.00,99.72
3992.00,99.72
3991.00,99.71
3990.00,99.71
3989.00,99.71
3988.00,99.71
3987.00,99.71
3986.00,99.71
3985.00,99.71
3984.00,99.71
3983.00,99.71
3982.00,99.70
3981.00,99.70
3980.00,99.70
3979.00,99.70
3978.00,99.70
3977.00,99.70
3976.00,99.70
3975.00,99.70
3974.00,99.70
3973.00,99.70
3972.00,99.70
3971.00,99.70
3970.00,99.70
3969.00,99.71
3968.00,99.71
3967.00,99.71
3966.00,99.71
3965.00,99.71
3964.00,99.72
3963.00,99.72
3962.00,99.72
3961.00,99.72
3960.00,99.72
3959.00,99.72
3958.00,99.72
3957.00,99.71
3956.00,99.71
3955.00,99.71
3954.00,99.72
3953.00,99.72
3952.00,99.72
3951.00,99.71
3950.00,99.71
3949.00,99.70
3948.00,99.70
3947.00,99.70
3946.00,99.70
3945.00,99.70
3944.00,99.70
3943.00,99.70
3942.00,99.70
3941.00,99.71
3940.00,99.71
3939.00,99.71
3938.00,99.71
3937.00,99.71
3936.00,99.71
3935.00,99.71
3934.00,99.71
3933.00,99.70
3932.00,99.70
3931.00,99.70
3930.00,99.70
3929.00,99.69
3928.00,99.69
3927.00,99.69
3926.00,99.69
3925.00,99.69
3924.00,99.69
3923.00,99.69
3922.00,99.69
3921.00,99.68
3920.00,99.68
3919.00,99.68
3918.00,99.68
3917.00,99.68
3916.00,99.69
3915.00,99.69
3914.00,99.69
3913.00,99.69
3912.00,99.69
3911.00,99.69
3910.00,99.69
3909.00,99.69
3908.00,99.69
3907.00,99.69
3906.00,99.69
3905.00,99.69
3904.00,99.69
3903.00,99.68
3902.00,99.68
3901.00,99.68
3900.00,99.68
3899.00,99.68
3898.00,99.69
3897.00,99.69
3896.00,99.69
3895.00,99.69
3894.00,99.68
3893.00,99.68
3892.00,99.68
3891.00,99.68
3890.00,99.68
3889.00,99.68
3888.00,99.68
3887.00,99.68
3886.00,99.68
3885.00,99.68
3884.00,99.68
3883.00,99.68
3882.00,99.68
3881.00,99.68
3880.00,99.68
3879.00,99.68
3878.00,99.68
3877.00,99.68
3876.00,99.68
3875.00,99.68
3874.00,99.68
3873.00,99.68
3872.00,99.68
3871.00,99.68
3870.00,99.69
3869.00,99.69
3868.00,99.69
3867.00,99.69
3866.00,99.69
3865.00,99.70
3864.00,99.70
3863.00,99.70
3862.00,99.70
3861.00,99.70
3860.00,99.70
3859.00,99.70
3858.00,99.70
3857.00,99.70
3856.00,99.70
3855.00,99.70
3854.00,99.70
3853.00,99.70
3852.00,99.70
3851.00,99.70
3850.00,99.70
3849.00,99.71
3848.00,99.71
3847.00,99.71
3846.00,99.71
3845.00,99.71
3844.00,99.71
3843.00,99.71
3842.00,99.71
3841.00,99.70
3840.00,99.70
3839.00,99.70
3838.00,99.70
3837.00,99.70
3836.00,99.70
3835.00,99.70
3834.00,99.70
3833.00,99.70
3832.00,99.70
3831.00,99.69
3830.00,99.69
3829.00,99.69
3828.00,99.69
3827.00,99.70
3826.00,99.70
3825.00,99.69
3824.00,99.69
3823.00,99.68
3822.00,99.68
3821.00,99.68
3820.00,99.68
3819.00,99.68
3818.00,99.68
3817.00,99.68
3816.00,99.68
3815.00,99.69
3814.00,99.69
3813.00,99.69
3812.00,99.69
3811.00,99.69
3810.00,99.70
3809.00,99.70
3808.00,99.71
3807.00,99.71
3806.00,99.71
3805.00,99.71
3804.00,99.71
3803.00,99.71
3802.00,99.71
3801.00,99.72
3800.00,99.72
3799.00,99.72
3798.00,99.71
3797.00,99.72
3796.00,99.72
3795.00,99.72
3794.00,99.72
3793.00,99.71
3792.00,99.71
3791.00,99.71
3790.00,99.72
3789.00,99.72
3788.00,99.72
3787.00,99.72
3786.00,99.72
3785.00,99.72
3784.00,99.72
3783.00,99.72
3782.00,99.72
3781.00,99.72
3780.00,99.72
3779.00,99.71
3778.00,99.71
3777.00,99.71
3776.00,99.72
3775.00,99.72
3774.00,99.72
3773.00,99.72
3772.00,99.72
3771.00,99.72
3770.00,99.72
3769.00,99.72
3768.00,99.71
3767.00,99.71
3766.00,99.71
3765.00,99.71
3764.00,99.71
3763.00,99.71
3762.00,99.71
3761.00,99.71
3760.00,99.72
3759.00,99.72
3758.00,99.72
3757.00,99.71
3756.00,99.71
3755.00,99.71
3754.00,99.71
3753.00,99.71
3752.00,99.71
3751.00,99.71
3750.00,99.71
3749.00,99.71
3748.00,99.72
3747.00,99.72
3746.00,99.71
3745.00,99.71
3744.00,99.71
3743.00,99.71
3742.00,99.71
3741.00,99.71
3740.00,99.71
3739.00,99.71
3738.00,99.71
3737.00,99.71
3736.00,99.71
3735.00,99.71
3734.00,99.71
3733.00,99.71
3732.00,99.71
3731.00,99.71
3730.00,99.71
3729.00,99.71
3728.00,99.71
3727.00,99.71
3726.00,99.71
3725.00,99.71
3724.00,99.71
3723.00,99.71
3722.00,99.71
3721.00,99.72
3720.00,99.72
3719.00,99.72
3718.00,99.72
3717.00,99.72
3716.00,99.72
3715.00,99.72
3714.00,99.71
3713.00,99.71
3712.00,99.71
3711.00,99.72
3710.00,99.72
3709.00,99.72
3708.00,99.72
3707.00,99.72
3706.00,99.72
3705.00,99.72
3704.00,99.72
3703.00,99.71
3702.00,99.71
3701.00,99.72
3700.00,99.72
3699.00,99.72
3698.00,99.72
3697.00,99.72
3696.00,99.72
3695.00,99.72
3694.00,99.72
3693.00,99.72
3692.00,99.72
3691.00,99.71
3690.00,99.71
3689.00,99.71
3688.00,99.71
3687.00,99.71
3686.00,99.71
3685.00,99.71
3684.00,99.71
3683.00,99.71
3682.00,99.72
3681.00,99.72
3680.00,99.72
3679.00,99.72
3678.00,99.72
3677.00,99.72
3676.00,99.71
3675.00,99.71
3674.00,99.71
3673.00,99.70
3672.00,99.70
3671.00,99.70
3670.00,99.71
3669.00,99.71
3668.00,99.71
3667.00,99.71
3666.00,99.70
3665.00,99.70
3664.00,99.70
3663.00,99.70
3662.00,99.70
3661.00,99.70
3660.00,99.70
3659.00,99.69
3658.00,99.69
3657.00,99.69
3656.00,99.68
3655.00,99.67
3654.00,99.66
3653.00,99.65
3652.00,99.64
3651.00,99.63
3650.00,99.62
3649.00,99.60
3648.00,99.59
3647.00,99.59
3646.00,99.59
3645.00,99.59
3644.00,99.59
3643.00,99.60
3642.00,99.61
3641.00,99.62
3640.00,99.62
3639.00,99.63
3638.00,99.63
3637.00,99.64
3636.00,99.64
3635.00,99.64
3634.00,99.64
3633.00,99.64
3632.00,99.64
3631.00,99.64
3630.00,99.64
3629.00,99.65
3628.00,99.65
3627.00,99.64
3626.00,99.64
3625.00,99.64
3624.00,99.63
3623.00,99.63
3622.00,99.62
3621.00,99.61
3620.00,99.60
3619.00,99.60
3618.00,99.59
3617.00,99.59
3616.00,99.59
3615.00,99.58
3614.00,99.58
3613.00,99.57
3612.00,99.56
3611.00,99.55
3610.00,99.54
3609.00,99.53
3608.00,99.52
3607.00,99.52
3606.00,99.51
3605.00,99.51
3604.00,99.51
3603.00,99.52
3602.00,99.53
3601.00,99.55
3600.00,99.56
3599.00,99.58
3598.00,99.59
3597.00,99.61
3596.00,99.62
3595.00,99.63
3594.00,99.65
3593.00,99.65
3592.00,99.66
3591.00,99.66
3590.00,99.66
3589.00,99.67
3588.00,99.67
3587.00,99.68
3586.00,99.69
3585.00,99.69
3584.00,99.70
3583.00,99.70
3582.00,99.71
3581.00,99.71
3580.00,99.71
3579.00,99.71
3578.00,99.71
3577.00,99.71
3576.00,99.71
3575.00,99.71
3574.00,99.71
3573.00,99.71
3572.00,99.71
3571.00,99.71
3570.00,99.71
3569.00,99.71
3568.00,99.71
3567.00,99.71
3566.00,99.71
3565.00,99.71
3564.00,99.71
3563.00,99.72
3562.00,99.72
3561.00,99.72
3560.00,99.72
3559.00,99.72
3558.00,99.72
3557.00,99.72
3556.00,99.72
3555.00,99.72
3554.00,99.72
3553.00,99.72
3552.00,99.72
3551.00,99.72
3550.00,99.71
3549.00,99.71
3548.00,99.71
3547.00,99.71
3546.00,99.71
3545.00,99.71
3544.00,99.71
3543.00,99.72
3542.00,99.72
3541.00,99.72
3540.00,99.72
3539.00,99.72
3538.00,99.72
3537.00,99.72
3536.00,99.72
3535.00,99.71
3534.00,99.71
3533.00,99.71
3532.00,99.71
3531.00,99.71
3530.00,99.71
3529.00,99.71
3528.00,99.70
3527.00,99.70
3526.00,99.70
3525.00,99.70
3524.00,99.70
3523.00,99.70
3522.00,99.70
3521.00,99.70
3520.00,99.70
3519.00,99.70
3518.00,99.69
3517.00,99.69
3516.00,99.69
3515.00,99.69
3514.00,99.69
3513.00,99.69
3512.00,99.68
3511.00,99.68
3510.00,99.69
3509.00,99.69
3508.00,99.69
3507.00,99.69
3506.00,99.69
3505.00,99.69
3504.00,99.69
3503.00,99.69
3502.00,99.69
3501.00,99.69
3500.00,99.69
3499.00,99.69
3498.00,99.69
3497.00,99.69
3496.00,99.69
3495.00,99.68
3494.00,99.68
3493.00,99.68
3492.00,99.68
3491.00,99.69
3490.00,99.69
3489.00,99.69
3488.00,99.69
3487.00,99.69
3486.00,99.69
3485.00,99.68
3484.00,99.68
3483.00,99.68
3482.00,99.67
3481.00,99.67
3480.00,99.67
3479.00,99.67
3478.00,99.67
3477.00,99.67
3476.00,99.67
3475.00,99.67
3474.00,99.67
3473.00,99.67
3472.00,99.67
3471.00,99.67
3470.00,99.67
3469.00,99.67
3468.00,99.67
3467.00,99.67
3466.00,99.67
3465.00,99.67
3464.00,99.66
3463.00,99.66
3462.00,99.66
3461.00,99.66
3460.00,99.65
3459.00,99.65
3458.00,99.65
3457.00,99.65
3456.00,99.65
3455.00,99.65
3454.00,99.65
3453.00,99.65
3452.00,99.65
3451.00,99.65
3450.00,99.65
3449.00,99.65
3448.00,99.65
3447.00,99.65
3446.00,99.65
3445.00,99.65
3444.00,99.65
3443.00,99.65
3442.00,99.65
3441.00,99.64
3440.00,99.64
3439.00,99.64
3438.00,99.64
3437.00,99.64
3436.00,99.64
3435.00,99.64
3434.00,99.65
3433.00,99.65
3432.00,99.65
3431.00,99.65
3430.00,99.65
3429.00,99.65
3428.00,99.65
3427.00,99.65
3426.00,99.65
3425.00,99.65
3424.00,99.65
3423.00,99.65
3422.00,99.65
3421.00,99.65
3420.00,99.65
3419.00,99.65
3418.00,99.64
3417.00,99.64
3416.00,99.64
3415.00,99.64
3414.00,99.64
3413.00,99.64
3412.00,99.64
3411.00,99.64
3410.00,99.63
3409.00,99.63
3408.00,99.63
3407.00,99.63
3406.00,99.63
3405.00,99.63
3404.00,99.63
3403.00,99.63
3402.00,99.63
3401.00,99.63
3400.00,99.63
3399.00,99.63
3398.00,99.63
3397.00,99.63
3396.00,99.63
3395.00,99.63
3394.00,99.63
3393.00,99.63
3392.00,99.63
3391.00,99.63
3390.00,99.63
3389.00,99.63
3388.00,99.63
3387.00,99.62
3386.00,99.62
3385.00,99.62
3384.00,99.62
3383.00,99.62
3382.00,99.63
3381.00,99.62
3380.00,99.62
3379.00,99.62
3378.00,99.63
3377.00,99.63
3376.00,99.62
3375.00,99.62
3374.00,99.62
3373.00,99.61
3372.00,99.61
3371.00,99.61
3370.00,99.61
3369.00,99.61
3368.00,99.61
3367.00,99.62
3366.00,99.62
3365.00,99.62
3364.00,99.62
3363.00,99.62
3362.00,99.62
3361.00,99.61
3360.00,99.61
3359.00,99.62
3358.00,99.62
3357.00,99.62
3356.00,99.63
3355.00,99.63
3354.00,99.63
3353.00,99.63
3352.00,99.63
3351.00,99.62
3350.00,99.62
3349.00,99.62
3348.00,99.62
3347.00,99.62
3346.00,99.62
3345.00,99.62
3344.00,99.63
3343.00,99.63
3342.00,99.63
3341.00,99.63
3340.00,99.62
3339.00,99.62
3338.00,99.63
3337.00,99.63
3336.00,99.63
3335.00,99.63
3334.00,99.63
3333.00,99.63
3332.00,99.63
3331.00,99.63
3330.00,99.63
3329.00,99.64
3328.00,99.64
3327.00,99.64
3326.00,99.64
3325.00,99.64
3324.00,99.63
3323.00,99.63
3322.00,99.63
3321.00,99.63
3320.00,99.63
3319.00,99.63
3318.00,99.63
3317.00,99.63
3316.00,99.63
3315.00,99.64
3314.00,99.64
3313.00,99.64
3312.00,99.64
3311.00,99.64
3310.00,99.64
3309.00,99.64
3308.00,99.64
3307.00,99.64
3306.00,99.64
3305.00,99.64
3304.00,99.64
3303.00,99.64
3302.00,99.64
3301.00,99.64
3300.00,99.64
3299.00,99.64
3298.00,99.64
3297.00,99.64
3296.00,99.64
3295.00,99.64
3294.00,99.64
3293.00,99.64
3292.00,99.64
3291.00,99.65
3290.00,99.65
3289.00,99.64
3288.00,99.64
3287.00,99.64
3286.00,99.64
3285.00,99.64
3284.00,99.64
3283.00,99.64
3282.00,99.64
3281.00,99.64
3280.00,99.64
3279.00,99.64
3278.00,99.64
3277.00,99.64
3276.00,99.64
3275.00,99.64
3274.00,99.64
3273.00,99.64
3272.00,99.64
3271.00,99.64
3270.00,99.64
3269.00,99.64
3268.00,99.64
3267.00,99.64
3266.00,99.64
3265.00,99.64
3264.00,99.64
3263.00,99.64
3262.00,99.64
3261.00,99.64
3260.00,99.64
3259.00,99.64
3258.00,99.64
3257.00,99.64
3256.00,99.64
3255.00,99.64
3254.00,99.64
3253.00,99.65
3252.00,99.65
3251.00,99.65
3250.00,99.65
3249.00,99.65
3248.00,99.65
3247.00,99.65
3246.00,99.65
3245.00,99.64
3244.00,99.64
3243.00,99.64
3242.00,99.64
3241.00,99.64
3240.00,99.64
3239.00,99.64
3238.00,99.64
3237.00,99.64
3236.00,99.64
3235.00,99.64
3234.00,99.64
3233.00,99.64
3232.00,99.64
3231.00,99.65
3230.00,99.65
3229.00,99.65
3228.00,99.65
3227.00,99.65
3226.00,99.65
3225.00,99.65
3224.00,99.65
3223.00,99.65
3222.00,99.65
3221.00,99.65
3220.00,99.65
3219.00,99.65
3218.00,99.66
3217.00,99.66
3216.00,99.66
3215.00,99.65
3214.00,99.65
3213.00,99.65
3212.00,99.65
3211.00,99.65
3210.00,99.65
3209.00,99.65
3208.00,99.65
3207.00,99.65
3206.00,99.65
3205.00,99.65
3204.00,99.65
3203.00,99.65
3202.00,99.65
3201.00,99.66
3200.00,99.65
3199.00,99.65
3198.00,99.65
3197.00,99.65
3196.00,99.65
3195.00,99.65
3194.00,99.65
3193.00,99.64
3192.00,99.64
3191.00,99.64
3190.00,99.64
3189.00,99.64
3188.00,99.65
3187.00,99.65
3186.00,99.65
3185.00,99.65
3184.00,99.65
3183.00,99.65
3182.00,99.65
3181.00,99.65
3180.00,99.65
3179.00,99.64
3178.00,99.64
3177.00,99.64
3176.00,99.64
3175.00,99.64
3174.00,99.64
3173.00,99.64
3172.00,99.64
3171.00,99.64
3170.00,99.64
3169.00,99.64
3168.00,99.64
3167.00,99.65
3166.00,99.65
3165.00,99.65
3164.00,99.64
3163.00,99.64
3162.00,99.64
3161.00,99.64
3160.00,99.64
3159.00,99.65
3158.00,99.65
3157.00,99.65
3156.00,99.66
3155.00,99.66
3154.00,99.66
3153.00,99.66
3152.00,99.66
3151.00,99.66
3150.00,99.66
3149.00,99.66
3148.00,99.66
3147.00,99.66
3146.00,99.66
3145.00,99.66
3144.00,99.66
3143.00,99.66
3142.00,99.66
3141.00,99.66
3140.00,99.66
3139.00,99.66
3138.00,99.66
3137.00,99.66
3136.00,99.66
3135.00,99.66
3134.00,99.66
3133.00,99.66
3132.00,99.66
3131.00,99.65
3130.00,99.65
3129.00,99.65
3128.00,99.65
3127.00,99.65
3126.00,99.65
3125.00,99.65
3124.00,99.65
3123.00,99.64
3122.00,99.64
3121.00,99.64
3120.00,99.64
3119.00,99.63
3118.00,99.63
3117.00,99.63
3116.00,99.63
3115.00,99.62
3114.00,99.62
3113.00,99.62
3112.00,99.61
3111.00,99.60
3110.00,99.60
3109.00,99.59
3108.00,99.58
3107.00,99.58
3106.00,99.57
3105.00,99.56
3104.00,99.55
3103.00,99.54
3102.00,99.53
3101.00,99.52
3100.00,99.50
3099.00,99.49
3098.00,99.48
3097.00,99.46
3096.00,99.45
3095.00,99.44
3094.00,99.42
3093.00,99.41
3092.00,99.40
3091.00,99.39
3090.00,99.37
3089.00,99.36
3088.00,99.35
3087.00,99.34
3086.00,99.34
3085.00,99.33
3084.00,99.32
3083.00,99.32
3082.00,99.31
3081.00,99.31
3080.00,99.30
3079.00,99.30
3078.00,99.29
3077.00,99.28
3076.00,99.27
3075.00,99.26
3074.00,99.26
3073.00,99.26
3072.00,99.26
3071.00,99.26
3070.00,99.26
3069.00,99.26
3068.00,99.26
3067.00,99.25
3066.00,99.25
3065.00,99.24
3064.00,99.24
3063.00,99.23
3062.00,99.22
3061.00,99.21
3060.00,99.21
3059.00,99.20
3058.00,99.20
3057.00,99.19
3056.00,99.19
3055.00,99.18
3054.00,99.17
3053.00,99.16
3052.00,99.16
3051.00,99.15
3050.00,99.14
3049.00,99.13
3048.00,99.13
3047.00,99.12
3046.00,99.11
3045.00,99.09
3044.00,99.08
3043.00,99.07
3042.00,99.06
3041.00,99.04
3040.00,99.03
3039.00,99.01
3038.00,99.00
3037.00,98.99
3036.00,98.98
3035.00,98.97
3034.00,98.96
3033.00,98.95
3032.00,98.95
3031.00,98.94
3030.00,98.93
3029.00,98.93
3028.00,98.92
3027.00,98.91
3026.00,98.91
3025.00,98.90
3024.00,98.89
3023.00,98.89
3022.00,98.88
3021.00,98.88
3020.00,98.87
3019.00,98.86
3018.00,98.86
3017.00,98.85
3016.00,98.84
3015.00,98.83
3014.00,98.82
3013.00,98.81
3012.00,98.80
3011.00,98.79
3010.00,98.78
3009.00,98.77
3008.00,98.75
3007.00,98.74
3006.00,98.72
3005.00,98.71
3004.00,98.69
3003.00,98.68
3002.00,98.67
3001.00,98.65
3000.00,98.64
2999.00,98.63
2998.00,98.61
2997.00,98.60
2996.00,98.58
2995.00,98.56
2994.00,98.54
2993.00,98.52
2992.00,98.49
2991.00,98.47
2990.00,98.44
2989.00,98.41
2988.00,98.38
2987.00,98.34
2986.00,98.30
2985.00,98.26
2984.00,98.21
2983.00,98.17
2982.00,98.12
2981.00,98.06
2980.00,98.00
2979.00,97.94
2978.00,97.88
2977.00,97.81
2976.00,97.74
2975.00,97.66
2974.00,97.58
2973.00,97.49
2972.00,97.40
2971.00,97.30
2970.00,97.20
2969.00,97.08
2968.00,96.96
2967.00,96.83
2966.00,96.69
2965.00,96.54
2964.00,96.39
2963.00,96.23
2962.00,96.07
2961.00,95.90
2960.00,95.73
2959.00,95.55
2958.00,95.37
2957.00,95.19
2956.00,95.01
2955.00,94.83
2954.00,94.65
2953.00,94.47
2952.00,94.27
2951.00,94.06
2950.00,93.82
2949.00,93.53
2948.00,93.19
2947.00,92.78
2946.00,92.30
2945.00,91.75
2944.00,91.13
2943.00,90.42
2942.00,89.64
2941.00,88.77
2940.00,87.82
2939.00,86.78
2938.00,85.65
2937.00,84.42
2936.00,83.10
2935.00,81.66
2934.00,80.10
2933.00,78.42
2932.00,76.61
2931.00,74.67
2930.00,72.56
2929.00,70.29
2928.00,67.81
2927.00,65.08
2926.00,62.09
2925.00,58.80
2924.00,55.21
2923.00,51.34
2922.00,47.24
2921.00,42.98
2920.00,38.68
2919.00,34.51
2918.00,30.73
2917.00,27.67
2916.00,25.66
2915.00,24.93
2914.00,25.52
2913.00,27.27
2912.00,29.87
2911.00,32.97
2910.00,36.23
2909.00,39.44
2908.00,42.45
2907.00,45.17
2906.00,47.59
2905.00,49.71
2904.00,51.56
2903.00,53.19
2902.00,54.63
2901.00,55.92
2900.00,57.10
2899.00,58.21
2898.00,59.26
2897.00,60.29
2896.00,61.31
2895.00,62.33
2894.00,63.36
2893.00,64.41
2892.00,65.48
2891.00,66.57
2890.00,67.68
2889.00,68.82
2888.00,69.97
2887.00,71.13
2886.00,72.31
2885.00,73.50
2884.00,74.71
2883.00,75.92
2882.00,77.15
2881.00,78.38
2880.00,79.60
2879.00,80.79
2878.00,81.93
2877.00,82.98
2876.00,83.93
2875.00,84.76
2874.00,85.45
2873.00,86.01
2872.00,86.44
2871.00,86.74
2870.00,86.91
2869.00,86.96
2868.00,86.88
2867.00,86.66
2866.00,86.28
2865.00,85.72
2864.00,84.96
2863.00,83.97
2862.00,82.72
2861.00,81.18
2860.00,79.30
2859.00,77.03
2858.00,74.29
2857.00,71.01
2856.00,67.11
2855.00,62.55
2854.00,57.32
2853.00,51.49
2852.00,45.31
2851.00,39.22
2850.00,33.87
2849.00,29.99
2848.00,28.21
2847.00,28.78
2846.00,31.54
2845.00,35.96
2844.00,41.34
2843.00,47.03
2842.00,52.56
2841.00,57.62
2840.00,62.10
2839.00,65.97
2838.00,69.30
2837.00,72.16
2836.00,74.61
2835.00,76.74
2834.00,78.58
2833.00,80.18
2832.00,81.58
2831.00,82.82
2830.00,83.92
2829.00,84.90
2828.00,85.79
2827.00,86.58
2826.00,87.31
2825.00,87.96
2824.00,88.56
2823.00,89.11
2822.00,89.62
2821.00,90.08
2820.00,90.51
2819.00,90.92
2818.00,91.29
2817.00,91.64
2816.00,91.97
2815.00,92.27
2814.00,92.56
2813.00,92.82
2812.00,93.07
2811.00,93.31
2810.00,93.54
2809.00,93.76
2808.00,93.96
2807.00,94.16
2806.00,94.34
2805.00,94.51
2804.00,94.68
2803.00,94.84
2802.00,95.00
2801.00,95.14
2800.00,95.28
2799.00,95.42
2798.00,95.55
2797.00,95.68
2796.00,95.80
2795.00,95.92
2794.00,96.04
2793.00,96.16
2792.00,96.28
2791.00,96.39
2790.00,96.50
2789.00,96.61
2788.00,96.72
2787.00,96.82
2786.00,96.92
2785.00,97.01
2784.00,97.10
2783.00,97.19
2782.00,97.26
2781.00,97.34
2780.00,97.41
2779.00,97.47
2778.00,97.53
2777.00,97.60
2776.00,97.65
2775.00,97.71
2774.00,97.76
2773.00,97.80
2772.00,97.85
2771.00,97.89
2770.00,97.93
2769.00,97.96
2768.00,98.00
2767.00,98.03
2766.00,98.06
2765.00,98.09
2764.00,98.11
2763.00,98.14
2762.00,98.17
2761.00,98.19
2760.00,98.22
2759.00,98.24
2758.00,98.27
2757.00,98.29
2756.00,98.31
2755.00,98.32
2754.00,98.34
2753.00,98.35
2752.00,98.36
2751.00,98.37
2750.00,98.38
2749.00,98.38
2748.00,98.38
2747.00,98.39
2746.00,98.39
2745.00,98.39
2744.00,98.39
2743.00,98.39
2742.00,98.39
2741.00,98.39
2740.00,98.40
2739.00,98.40
2738.00,98.41
2737.00,98.42
2736.00,98.43
2735.00,98.45
2734.00,98.46
2733.00,98.48
2732.00,98.50
2731.00,98.51
2730.00,98.53
2729.00,98.54
2728.00,98.56
2727.00,98.57
2726.00,98.59
2725.00,98.60
2724.00,98.62
2723.00,98.63
2722.00,98.64
2721.00,98.65
2720.00,98.66
2719.00,98.67
2718.00,98.68
2717.00,98.69
2716.00,98.71
2715.00,98.71
2714.00,98.72
2713.00,98.73
2712.00,98.74
2711.00,98.75
2710.00,98.76
2709.00,98.77
2708.00,98.77
2707.00,98.78
2706.00,98.79
2705.00,98.80
2704.00,98.81
2703.00,98.82
2702.00,98.84
2701.00,98.85
2700.00,98.86
2699.00,98.87
2698.00,98.88
2697.00,98.89
2696.00,98.89
2695.00,98.90
2694.00,98.90
2693.00,98.90
2692.00,98.90
2691.00,98.90
2690.00,98.90
2689.00,98.90
2688.00,98.89
2687.00,98.89
2686.00,98.89
2685.00,98.88
2684.00,98.88
2683.00,98.87
2682.00,98.86
2681.00,98.85
2680.00,98.84
2679.00,98.83
2678.00,98.82
2677.00,98.80
2676.00,98.79
2675.00,98.77
2674.00,98.75
2673.00,98.73
2672.00,98.71
2671.00,98.69
2670.00,98.67
2669.00,98.65
2668.00,98.63
2667.00,98.62
2666.00,98.60
2665.00,98.58
2664.00,98.56
2663.00,98.55
2662.00,98.54
2661.00,98.52
2660.00,98.52
2659.00,98.51
2658.00,98.51
2657.00,98.51
2656.00,98.51
2655.00,98.51
2654.00,98.52
2653.00,98.52
2652.00,98.52
2651.00,98.52
2650.00,98.52
2649.00,98.52
2648.00,98.52
2647.00,98.51
2646.00,98.50
2645.00,98.49
2644.00,98.48
2643.00,98.47
2642.00,98.46
2641.00,98.45
2640.00,98.44
2639.00,98.43
2638.00,98.42
2637.00,98.41
2636.00,98.41
2635.00,98.42
2634.00,98.42
2633.00,98.43
2632.00,98.45
2631.00,98.47
2630.00,98.49
2629.00,98.52
2628.00,98.54
2627.00,98.57
2626.00,98.59
2625.00,98.61
2624.00,98.64
2623.00,98.66
2622.00,98.69
2621.00,98.71
2620.00,98.73
2619.00,98.75
2618.00,98.77
2617.00,98.79
2616.00,98.80
2615.00,98.82
2614.00,98.84
2613.00,98.85
2612.00,98.87
2611.00,98.89
2610.00,98.90
2609.00,98.92
2608.00,98.93
2607.00,98.94
2606.00,98.95
2605.00,98.96
2604.00,98.96
2603.00,98.97
2602.00,98.98
2601.00,98.99
2600.00,99.00
2599.00,99.02
2598.00,99.03
2597.00,99.04
2596.00,99.05
2595.00,99.07
2594.00,99.08
2593.00,99.09
2592.00,99.10
2591.00,99.11
2590.00,99.12
2589.00,99.13
2588.00,99.14
2587.00,99.15
2586.00,99.16
2585.00,99.17
2584.00,99.18
2583.00,99.19
2582.00,99.20
2581.00,99.21
2580.00,99.22
2579.00,99.22
2578.00,99.23
2577.00,99.24
2576.00,99.25
2575.00,99.26
2574.00,99.27
2573.00,99.28
2572.00,99.28
2571.00,99.29
2570.00,99.30
2569.00,99.30
2568.00,99.30
2567.00,99.31
2566.00,99.31
2565.00,99.32
2564.00,99.33
2563.00,99.33
2562.00,99.34
2561.00,99.34
2560.00,99.34
2559.00,99.35
2558.00,99.35
2557.00,99.36
2556.00,99.36
2555.00,99.36
2554.00,99.37
2553.00,99.37
2552.00,99.37
2551.00,99.37
2550.00,99.37
2549.00,99.38
2548.00,99.39
2547.00,99.40
2546.00,99.41
2545.00,99.42
2544.00,99.44
2543.00,99.45
2542.00,99.47
2541.00,99.48
2540.00,99.49
2539.00,99.49
2538.00,99.50
2537.00,99.50
2536.00,99.50
2535.00,99.50
2534.00,99.50
2533.00,99.50
2532.00,99.50
2531.00,99.50
2530.00,99.50
2529.00,99.49
2528.00,99.49
2527.00,99.49
2526.00,99.50
2525.00,99.51
2524.00,99.51
2523.00,99.52
2522.00,99.53
2521.00,99.53
2520.00,99.54
2519.00,99.55
2518.00,99.56
2517.00,99.57
2516.00,99.57
2515.00,99.58
2514.00,99.58
2513.00,99.58
2512.00,99.58
2511.00,99.58
2510.00,99.57
2509.00,99.57
2508.00,99.58
2507.00,99.58
2506.00,99.59
2505.00,99.60
2504.00,99.60
2503.00,99.61
2502.00,99.61
2501.00,99.61
2500.00,99.61
2499.00,99.60
2498.00,99.60
2497.00,99.60
2496.00,99.61
2495.00,99.61
2494.00,99.61
2493.00,99.61
2492.00,99.60
2491.00,99.60
2490.00,99.60
2489.00,99.60
2488.00,99.61
2487.00,99.62
2486.00,99.62
2485.00,99.61
2484.00,99.61
2483.00,99.61
2482.00,99.61
2481.00,99.61
2480.00,99.61
2479.00,99.61
2478.00,99.62
2477.00,99.62
2476.00,99.61
2475.00,99.60
2474.00,99.60
2473.00,99.60
2472.00,99.61
2471.00,99.62
2470.00,99.64
2469.00,99.65
2468.00,99.65
2467.00,99.66
2466.00,99.66
2465.00,99.66
2464.00,99.66
2463.00,99.67
2462.00,99.67
2461.00,99.67
2460.00,99.67
2459.00,99.66
2458.00,99.65
2457.00,99.64
2456.00,99.64
2455.00,99.64
2454.00,99.64
2453.00,99.64
2452.00,99.64
2451.00,99.65
2450.00,99.65
2449.00,99.66
2448.00,99.66
2447.00,99.67
2446.00,99.67
2445.00,99.67
2444.00,99.67
2443.00,99.67
2442.00,99.67
2441.00,99.68
2440.00,99.68
2439.00,99.67
2438.00,99.67
2437.00,99.67
2436.00,99.67
2435.00,99.68
2434.00,99.68
2433.00,99.68
2432.00,99.69
2431.00,99.68
2430.00,99.68
2429.00,99.67
2428.00,99.67
2427.00,99.67
2426.00,99.66
2425.00,99.66
2424.00,99.66
2423.00,99.65
2422.00,99.65
2421.00,99.64
2420.00,99.64
2419.00,99.64
2418.00,99.65
2417.00,99.64
2416.00,99.64
2415.00,99.64
2414.00,99.64
2413.00,99.64
2412.00,99.65
2411.00,99.65
2410.00,99.66
2409.00,99.67
2408.00,99.68
2407.00,99.70
2406.00,99.71
2405.00,99.71
2404.00,99.71
2403.00,99.71
2402.00,99.71
2401.00,99.71
2400.00,99.71
2399.00,99.72
2398.00,99.72
2397.00,99.72
2396.00,99.72
2395.00,99.72
2394.00,99.72
2393.00,99.73
2392.00,99.73
2391.00,99.73
2390.00,99.73
2389.00,99.73
2388.00,99.73
2387.00,99.73
2386.00,99.72
2385.00,99.72
2384.00,99.72
2383.00,99.72
2382.00,99.71
2381.00,99.71
2380.00,99.71
2379.00,99.71
2378.00,99.71
2377.00,99.72
2376.00,99.73
2375.00,99.75
2374.00,99.76
2373.00,99.77
2372.00,99.77
2371.00,99.76
2370.00,99.76
2369.00,99.75
2368.00,99.73
2367.00,99.71
2366.00,99.69
2365.00,99.66
2364.00,99.64
2363.00,99.63
2362.00,99.62
2361.00,99.61
2360.00,99.60
2359.00,99.59
2358.00,99.59
2357.00,99.59
2356.00,99.59
2355.00,99.59
2354.00,99.58
2353.00,99.56
2352.00,99.54
2351.00,99.54
2350.00,99.54
2349.00,99.52
2348.00,99.50
2347.00,99.48
2346.00,99.46
2345.00,99.46
2344.00,99.45
2343.00,99.44
2342.00,99.43
2341.00,99.42
2340.00,99.42
2339.00,99.41
2338.00,99.40
2337.00,99.39
2336.00,99.39
2335.00,99.38
2334.00,99.37
2333.00,99.36
2332.00,99.35
2331.00,99.35
2330.00,99.34
2329.00,99.33
2328.00,99.32
2327.00,99.28
2326.00,99.23
2325.00,99.17
2324.00,99.14
2323.00,99.14
2322.00,99.16
2321.00,99.20
2320.00,99.23
2319.00,99.27
2318.00,99.29
2317.00,99.31
2316.00,99.32
2315.00,99.33
2314.00,99.33
2313.00,99.33
2312.00,99.34
2311.00,99.34
2310.00,99.35
2309.00,99.35
2308.00,99.36
2307.00,99.37
2306.00,99.37
2305.00,99.38
2304.00,99.38
2303.00,99.39
2302.00,99.40
2301.00,99.41
2300.00,99.41
2299.00,99.42
2298.00,99.42
2297.00,99.42
2296.00,99.41
2295.00,99.41
2294.00,99.40
2293.00,99.39
2292.00,99.38
2291.00,99.37
2290.00,99.37
2289.00,99.36
2288.00,99.34
2287.00,99.33
2286.00,99.33
2285.00,99.33
2284.00,99.34
2283.00,99.35
2282.00,99.36
2281.00,99.37
2280.00,99.38
2279.00,99.40
2278.00,99.41
2277.00,99.42
2276.00,99.43
2275.00,99.44
2274.00,99.44
2273.00,99.45
2272.00,99.46
2271.00,99.47
2270.00,99.48
2269.00,99.48
2268.00,99.49
2267.00,99.49
2266.00,99.50
2265.00,99.52
2264.00,99.53
2263.00,99.54
2262.00,99.54
2261.00,99.54
2260.00,99.54
2259.00,99.54
2258.00,99.53
2257.00,99.53
2256.00,99.54
2255.00,99.55
2254.00,99.56
2253.00,99.56
2252.00,99.57
2251.00,99.57
2250.00,99.58
2249.00,99.57
2248.00,99.56
2247.00,99.56
2246.00,99.57
2245.00,99.57
2244.00,99.56
2243.00,99.56
2242.00,99.56
2241.00,99.56
2240.00,99.56
2239.00,99.56
2238.00,99.57
2237.00,99.57
2236.00,99.57
2235.00,99.57
2234.00,99.57
2233.00,99.56
2232.00,99.56
2231.00,99.56
2230.00,99.57
2229.00,99.58
2228.00,99.59
2227.00,99.59
2226.00,99.59
2225.00,99.58
2224.00,99.57
2223.00,99.56
2222.00,99.56
2221.00,99.56
2220.00,99.56
2219.00,99.57
2218.00,99.58
2217.00,99.58
2216.00,99.58
2215.00,99.59
2214.00,99.59
2213.00,99.60
2212.00,99.59
2211.00,99.59
2210.00,99.59
2209.00,99.58
2208.00,99.58
2207.00,99.58
2206.00,99.58
2205.00,99.58
2204.00,99.58
2203.00,99.58
2202.00,99.57
2201.00,99.56
2200.00,99.54
2199.00,99.54
2198.00,99.53
2197.00,99.53
2196.00,99.52
2195.00,99.52
2194.00,99.51
2193.00,99.50
2192.00,99.48
2191.00,99.47
2190.00,99.46
2189.00,99.45
2188.00,99.44
2187.00,99.44
2186.00,99.44
2185.00,99.44
2184.00,99.45
2183.00,99.48
2182.00,99.51
2181.00,99.53
2180.00,99.53
2179.00,99.53
2178.00,99.52
2177.00,99.52
2176.00,99.54
2175.00,99.56
2174.00,99.57
2173.00,99.56
2172.00,99.54
2171.00,99.52
2170.00,99.49
2169.00,99.45
2168.00,99.40
2167.00,99.36
2166.00,99.31
2165.00,99.28
2164.00,99.24
2163.00,99.21
2162.00,99.19
2161.00,99.22
2160.00,99.34
2159.00,99.55
2158.00,99.75
2157.00,99.88
2156.00,99.93
2155.00,99.92
2154.00,99.90
2153.00,99.87
2152.00,99.84
2151.00,99.82
2150.00,99.81
2149.00,99.79
2148.00,99.79
2147.00,99.80
2146.00,99.81
2145.00,99.82
2144.00,99.82
2143.00,99.82
2142.00,99.82
2141.00,99.82
2140.00,99.81
2139.00,99.82
2138.00,99.82
2137.00,99.82
2136.00,99.84
2135.00,99.87
2134.00,99.91
2133.00,99.94
2132.00,99.95
2131.00,99.94
2130.00,99.92
2129.00,99.90
2128.00,99.87
2127.00,99.86
2126.00,99.84
2125.00,99.83
2124.00,99.82
2123.00,99.80
2122.00,99.79
2121.00,99.77
2120.00,99.75
2119.00,99.73
2118.00,99.72
2117.00,99.70
2116.00,99.68
2115.00,99.66
2114.00,99.65
2113.00,99.64
2112.00,99.64
2111.00,99.64
2110.00,99.64
2109.00,99.64
2108.00,99.64
2107.00,99.64
2106.00,99.64
2105.00,99.64
2104.00,99.63
2103.00,99.63
2102.00,99.63
2101.00,99.63
2100.00,99.64
2099.00,99.65
2098.00,99.66
2097.00,99.68
2096.00,99.70
2095.00,99.72
2094.00,99.73
2093.00,99.73
2092.00,99.72
2091.00,99.71
2090.00,99.69
2089.00,99.67
2088.00,99.65
2087.00,99.64
2086.00,99.63
2085.00,99.63
2084.00,99.62
2083.00,99.61
2082.00,99.60
2081.00,99.59
2080.00,99.57
2079.00,99.56
2078.00,99.56
2077.00,99.56
2076.00,99.56
2075.00,99.57
2074.00,99.58
2073.00,99.58
2072.00,99.58
2071.00,99.58
2070.00,99.58
2069.00,99.57
2068.00,99.56
2067.00,99.57
2066.00,99.59
2065.00,99.60
2064.00,99.60
2063.00,99.60
2062.00,99.60
2061.00,99.60
2060.00,99.59
2059.00,99.58
2058.00,99.57
2057.00,99.54
2056.00,99.52
2055.00,99.52
2054.00,99.51
2053.00,99.47
2052.00,99.41
2051.00,99.35
2050.00,99.32
2049.00,99.33
2048.00,99.36
2047.00,99.39
2046.00,99.41
2045.00,99.42
2044.00,99.42
2043.00,99.41
2042.00,99.41
2041.00,99.41
2040.00,99.40
2039.00,99.39
2038.00,99.38
2037.00,99.38
2036.00,99.40
2035.00,99.43
2034.00,99.45
2033.00,99.45
2032.00,99.44
2031.00,99.44
2030.00,99.44
2029.00,99.42
2028.00,99.40
2027.00,99.38
2026.00,99.38
2025.00,99.40
2024.00,99.41
2023.00,99.43
2022.00,99.42
2021.00,99.41
2020.00,99.39
2019.00,99.38
2018.00,99.38
2017.00,99.39
2016.00,99.40
2015.00,99.41
2014.00,99.43
2013.00,99.43
2012.00,99.44
2011.00,99.46
2010.00,99.47
2009.00,99.49
2008.00,99.52
2007.00,99.56
2006.00,99.60
2005.00,99.63
2004.00,99.64
2003.00,99.64
2002.00,99.63
2001.00,99.60
2000.00,99.58
1999.00,99.56
1998.00,99.55
1997.00,99.54
1996.00,99.54
1995.00,99.55
1994.00,99.56
1993.00,99.57
1992.00,99.56
1991.00,99.55
1990.00,99.53
1989.00,99.52
1988.00,99.51
1987.00,99.49
1986.00,99.47
1985.00,99.44
1984.00,99.41
1983.00,99.38
1982.00,99.34
1981.00,99.30
1980.00,99.27
1979.00,99.30
1978.00,99.39
1977.00,99.48
1976.00,99.55
1975.00,99.59
1974.00,99.60
1973.00,99.61
1972.00,99.63
1971.00,99.65
1970.00,99.66
1969.00,99.66
1968.00,99.65
1967.00,99.64
1966.00,99.64
1965.00,99.62
1964.00,99.61
1963.00,99.62
1962.00,99.65
1961.00,99.68
1960.00,99.71
1959.00,99.74
1958.00,99.76
1957.00,99.76
1956.00,99.75
1955.00,99.73
1954.00,99.72
1953.00,99.70
1952.00,99.70
1951.00,99.70
1950.00,99.70
1949.00,99.69
1948.00,99.69
1947.00,99.68
1946.00,99.68
1945.00,99.68
1944.00,99.67
1943.00,99.67
1942.00,99.68
1941.00,99.69
1940.00,99.69
1939.00,99.70
1938.00,99.70
1937.00,99.70
1936.00,99.69
1935.00,99.69
1934.00,99.69
1933.00,99.69
1932.00,99.68
1931.00,99.69
1930.00,99.69
1929.00,99.70
1928.00,99.70
1927.00,99.71
1926.00,99.71
1925.00,99.70
1924.00,99.69
1923.00,99.69
1922.00,99.67
1921.00,99.66
1920.00,99.64
1919.00,99.63
1918.00,99.63
1917.00,99.63
1916.00,99.63
1915.00,99.63
1914.00,99.63
1913.00,99.63
1912.00,99.63
1911.00,99.62
1910.00,99.62
1909.00,99.61
1908.00,99.60
1907.00,99.58
1906.00,99.57
1905.00,99.56
1904.00,99.55
1903.00,99.55
1902.00,99.55
1901.00,99.54
1900.00,99.53
1899.00,99.52
1898.00,99.52
1897.00,99.52
1896.00,99.53
1895.00,99.53
1894.00,99.54
1893.00,99.55
1892.00,99.57
1891.00,99.59
1890.00,99.60
1889.00,99.62
1888.00,99.63
1887.00,99.64
1886.00,99.65
1885.00,99.67
1884.00,99.68
1883.00,99.69
1882.00,99.70
1881.00,99.71
1880.00,99.71
1879.00,99.72
1878.00,99.73
1877.00,99.72
1876.00,99.72
1875.00,99.73
1874.00,99.73
1873.00,99.73
1872.00,99.74
1871.00,99.75
1870.00,99.76
1869.00,99.76
1868.00,99.75
1867.00,99.75
1866.00,99.75
1865.00,99.75
1864.00,99.76
1863.00,99.76
1862.00,99.77
1861.00,99.77
1860.00,99.77
1859.00,99.77
1858.00,99.77
1857.00,99.77
1856.00,99.77
1855.00,99.77
1854.00,99.77
1853.00,99.77
1852.00,99.77
1851.00,99.77
1850.00,99.77
1849.00,99.77
1848.00,99.77
1847.00,99.77
1846.00,99.77
1845.00,99.77
1844.00,99.76
1843.00,99.76
1842.00,99.76
1841.00,99.76
1840.00,99.76
1839.00,99.76
1838.00,99.77
1837.00,99.77
1836.00,99.76
1835.00,99.76
1834.00,99.77
1833.00,99.76
1832.00,99.76
1831.00,99.75
1830.00,99.75
1829.00,99.74
1828.00,99.73
1827.00,99.72
1826.00,99.72
1825.00,99.71
1824.00,99.71
1823.00,99.70
1822.00,99.70
1821.00,99.70
1820.00,99.71
1819.00,99.72
1818.00,99.74
1817.00,99.75
1816.00,99.75
1815.00,99.75
1814.00,99.74
1813.00,99.73
1812.00,99.72
1811.00,99.72
1810.00,99.72
1809.00,99.72
1808.00,99.72
1807.00,99.72
1806.00,99.71
1805.00,99.71
1804.00,99.70
1803.00,99.70
1802.00,99.70
1801.00,99.70
1800.00,99.70
1799.00,99.70
1798.00,99.70
1797.00,99.70
1796.00,99.70
1795.00,99.70
1794.00,99.70
1793.00,99.69
1792.00,99.68
1791.00,99.69
1790.00,99.69
1789.00,99.69
1788.00,99.69
1787.00,99.68
1786.00,99.68
1785.00,99.68
1784.00,99.68
1783.00,99.69
1782.00,99.69
1781.00,99.69
1780.00,99.69
1779.00,99.69
1778.00,99.69
1777.00,99.69
1776.00,99.69
1775.00,99.68
1774.00,99.68
1773.00,99.67
1772.00,99.67
1771.00,99.67
1770.00,99.67
1769.00,99.66
1768.00,99.66
1767.00,99.65
1766.00,99.65
1765.00,99.65
1764.00,99.65
1763.00,99.64
1762.00,99.64
1761.00,99.63
1760.00,99.62
1759.00,99.60
1758.00,99.59
1757.00,99.58
1756.00,99.56
1755.00,99.55
1754.00,99.54
1753.00,99.53
1752.00,99.52
1751.00,99.51
1750.00,99.50
1749.00,99.48
1748.00,99.47
1747.00,99.46
1746.00,99.45
1745.00,99.44
1744.00,99.43
1743.00,99.43
1742.00,99.43
1741.00,99.43
1740.00,99.43
1739.00,99.44
1738.00,99.44
1737.00,99.45
1736.00,99.45
1735.00,99.46
1734.00,99.47
1733.00,99.48
1732.00,99.48
1731.00,99.49
1730.00,99.49
1729.00,99.49
1728.00,99.49
1727.00,99.50
1726.00,99.50
1725.00,99.50
1724.00,99.50
1723.00,99.51
1722.00,99.51
1721.00,99.51
1720.00,99.51
1719.00,99.51
1718.00,99.52
1717.00,99.52
1716.00,99.52
1715.00,99.52
1714.00,99.53
1713.00,99.53
1712.00,99.53
1711.00,99.53
1710.00,99.53
1709.00,99.53
1708.00,99.53
1707.00,99.52
1706.00,99.53
1705.00,99.53
1704.00,99.52
1703.00,99.52
1702.00,99.53
1701.00,99.53
1700.00,99.53
1699.00,99.53
1698.00,99.53
1697.00,99.52
1696.00,99.52
1695.00,99.52
1694.00,99.53
1693.00,99.53
1692.00,99.53
1691.00,99.53
1690.00,99.54
1689.00,99.53
1688.00,99.53
1687.00,99.52
1686.00,99.52
1685.00,99.51
1684.00,99.51
1683.00,99.50
1682.00,99.50
1681.00,99.49
1680.00,99.48
1679.00,99.47
1678.00,99.47
1677.00,99.47
1676.00,99.46
1675.00,99.46
1674.00,99.46
1673.00,99.46
1672.00,99.46
1671.00,99.46
1670.00,99.45
1669.00,99.44
1668.00,99.43
1667.00,99.43
1666.00,99.43
1665.00,99.43
1664.00,99.42
1663.00,99.41
1662.00,99.41
1661.00,99.41
1660.00,99.40
1659.00,99.40
1658.00,99.40
1657.00,99.40
1656.00,99.39
1655.00,99.39
1654.00,99.39
1653.00,99.37
1652.00,99.36
1651.00,99.35
1650.00,99.35
1649.00,99.33
1648.00,99.31
1647.00,99.28
1646.00,99.25
1645.00,99.22
1644.00,99.20
1643.00,99.18
1642.00,99.17
1641.00,99.17
1640.00,99.18
1639.00,99.20
1638.00,99.23
1637.00,99.25
1636.00,99.26
1635.00,99.28
1634.00,99.29
1633.00,99.29
1632.00,99.29
1631.00,99.29
1630.00,99.30
1629.00,99.31
1628.00,99.31
1627.00,99.31
1626.00,99.32
1625.00,99.32
1624.00,99.32
1623.00,99.32
1622.00,99.32
1621.00,99.32
1620.00,99.31
1619.00,99.32
1618.00,99.32
1617.00,99.32
1616.00,99.31
1615.00,99.31
1614.00,99.31
1613.00,99.30
1612.00,99.29
1611.00,99.29
1610.00,99.29
1609.00,99.28
1608.00,99.26
1607.00,99.25
1606.00,99.23
1605.00,99.21
1604.00,99.19
1603.00,99.17
1602.00,99.14
1601.00,99.11
1600.00,99.07
1599.00,99.04
1598.00,99.01
1597.00,98.96
1596.00,98.92
1595.00,98.89
1594.00,98.87
1593.00,98.87
1592.00,98.88
1591.00,98.90
1590.00,98.93
1589.00,98.95
1588.00,98.98
1587.00,99.02
1586.00,99.05
1585.00,99.08
1584.00,99.10
1583.00,99.13
1582.00,99.15
1581.00,99.17
1580.00,99.19
1579.00,99.20
1578.00,99.22
1577.00,99.24
1576.00,99.25
1575.00,99.27
1574.00,99.29
1573.00,99.29
1572.00,99.29
1571.00,99.30
1570.00,99.31
1569.00,99.31
1568.00,99.30
1567.00,99.30
1566.00,99.30
1565.00,99.30
1564.00,99.30
1563.00,99.30
1562.00,99.31
1561.00,99.31
1560.00,99.30
1559.00,99.30
1558.00,99.31
1557.00,99.31
1556.00,99.30
1555.00,99.30
1554.00,99.31
1553.00,99.31
1552.00,99.30
1551.00,99.30
1550.00,99.30
1549.00,99.30
1548.00,99.29
1547.00,99.29
1546.00,99.30
1545.00,99.29
1544.00,99.28
1543.00,99.28
1542.00,99.30
1541.00,99.29
1540.00,99.27
1539.00,99.28
1538.00,99.29
1537.00,99.29
1536.00,99.28
1535.00,99.28
1534.00,99.28
1533.00,99.27
1532.00,99.26
1531.00,99.26
1530.00,99.26
1529.00,99.26
1528.00,99.24
1527.00,99.24
1526.00,99.24
1525.00,99.24
1524.00,99.22
1523.00,99.22
1522.00,99.22
1521.00,99.21
1520.00,99.18
1519.00,99.18
1518.00,99.19
1517.00,99.16
1516.00,99.13
1515.00,99.12
1514.00,99.12
1513.00,99.10
1512.00,99.07
1511.00,99.05
1510.00,99.05
1509.00,99.03
1508.00,98.97
1507.00,98.93
1506.00,98.91
1505.00,98.86
1504.00,98.82
1503.00,98.80
1502.00,98.79
1501.00,98.77
1500.00,98.72
1499.00,98.70
1498.00,98.70
1497.00,98.65
1496.00,98.59
1495.00,98.56
1494.00,98.54
1493.00,98.50
1492.00,98.42
1491.00,98.37
1490.00,98.32
1489.00,98.23
1488.00,98.10
1487.00,98.01
1486.00,97.91
1485.00,97.76
1484.00,97.56
1483.00,97.34
1482.00,97.04
1481.00,96.57
1480.00,95.94
1479.00,95.01
1478.00,93.30
1477.00,90.20
1476.00,85.50
1475.00,79.76
1474.00,74.29
1473.00,71.19
1472.00,71.72
1471.00,74.34
1470.00,76.86
1469.00,78.50
1468.00,79.30
1467.00,79.13
1466.00,77.46
1465.00,74.11
1464.00,70.50
1463.00,68.67
1462.00,69.44
1461.00,72.46
1460.00,76.87
1459.00,81.61
1458.00,85.77
1457.00,88.73
1456.00,90.47
1455.00,91.46
1454.00,92.19
1453.00,92.90
1452.00,93.57
1451.00,94.10
1450.00,94.48
1449.00,94.80
1448.00,95.08
1447.00,95.27
1446.00,95.39
1445.00,95.50
1444.00,95.61
1443.00,95.70
1442.00,95.77
1441.00,95.86
1440.00,95.96
1439.00,96.04
1438.00,96.12
1437.00,96.25
1436.00,96.41
1435.00,96.55
1434.00,96.69
1433.00,96.86
1432.00,97.07
1431.00,97.29
1430.00,97.50
1429.00,97.71
1428.00,97.90
1427.00,98.05
1426.00,98.17
1425.00,98.30
1424.00,98.43
1423.00,98.51
1422.00,98.56
1421.00,98.62
1420.00,98.70
1419.00,98.75
1418.00,98.78
1417.00,98.81
1416.00,98.84
1415.00,98.85
1414.00,98.86
1413.00,98.88
1412.00,98.91
1411.00,98.93
1410.00,98.94
1409.00,98.96
1408.00,98.99
1407.00,99.00
1406.00,98.99
1405.00,99.00
1404.00,99.01
1403.00,99.01
1402.00,99.01
1401.00,99.01
1400.00,99.02
1399.00,99.01
1398.00,99.00
1397.00,99.01
1396.00,99.02
1395.00,99.02
1394.00,99.01
1393.00,99.00
1392.00,99.00
1391.00,98.99
1390.00,98.98
1389.00,98.98
1388.00,98.99
1387.00,98.98
1386.00,98.96
1385.00,98.94
1384.00,98.91
1383.00,98.86
1382.00,98.77
1381.00,98.68
1380.00,98.57
1379.00,98.45
1378.00,98.36
1377.00,98.30
1376.00,98.27
1375.00,98.22
1374.00,98.15
1373.00,98.07
1372.00,97.98
1371.00,97.90
1370.00,97.82
1369.00,97.78
1368.00,97.78
1367.00,97.80
1366.00,97.83
1365.00,97.89
1364.00,97.96
1363.00,98.02
1362.00,98.07
1361.00,98.12
1360.00,98.16
1359.00,98.19
1358.00,98.21
1357.00,98.22
1356.00,98.23
1355.00,98.23
1354.00,98.21
1353.00,98.21
1352.00,98.22
1351.00,98.24
1350.00,98.26
1349.00,98.30
1348.00,98.35
1347.00,98.39
1346.00,98.43
1345.00,98.46
1344.00,98.50
1343.00,98.53
1342.00,98.56
1341.00,98.58
1340.00,98.62
1339.00,98.65
1338.00,98.68
1337.00,98.72
1336.00,98.77
1335.00,98.81
1334.00,98.83
1333.00,98.86
1332.00,98.88
1331.00,98.89
1330.00,98.88
1329.00,98.88
1328.00,98.87
1327.00,98.86
1326.00,98.84
1325.00,98.83
1324.00,98.81
1323.00,98.79
1322.00,98.76
1321.00,98.73
1320.00,98.71
1319.00,98.67
1318.00,98.64
1317.00,98.62
1316.00,98.60
1315.00,98.58
1314.00,98.56
1313.00,98.54
1312.00,98.52
1311.00,98.51
1310.00,98.49
1309.00,98.48
1308.00,98.48
1307.00,98.48
1306.00,98.47
1305.00,98.47
1304.00,98.48
1303.00,98.49
1302.00,98.50
1301.00,98.51
1300.00,98.52
1299.00,98.53
1298.00,98.55
1297.00,98.57
1296.00,98.60
1295.00,98.63
1294.00,98.66
1293.00,98.69
1292.00,98.72
1291.00,98.74
1290.00,98.76
1289.00,98.78
1288.00,98.80
1287.00,98.82
1286.00,98.83
1285.00,98.84
1284.00,98.85
1283.00,98.86
1282.00,98.87
1281.00,98.88
1280.00,98.89
1279.00,98.89
1278.00,98.89
1277.00,98.90
1276.00,98.90
1275.00,98.91
1274.00,98.91
1273.00,98.92
1272.00,98.94
1271.00,98.95
1270.00,98.96
1269.00,98.97
1268.00,98.97
1267.00,98.98
1266.00,98.98
1265.00,98.99
1264.00,99.00
1263.00,99.01
1262.00,99.01
1261.00,99.02
1260.00,99.03
1259.00,99.04
1258.00,99.04
1257.00,99.05
1256.00,99.06
1255.00,99.07
1254.00,99.08
1253.00,99.10
1252.00,99.12
1251.00,99.14
1250.00,99.16
1249.00,99.18
1248.00,99.20
1247.00,99.22
1246.00,99.23
1245.00,99.25
1244.00,99.27
1243.00,99.28
1242.00,99.28
1241.00,99.29
1240.00,99.28
1239.00,99.27
1238.00,99.24
1237.00,99.23
1236.00,99.22
1235.00,99.20
1234.00,99.19
1233.00,99.19
1232.00,99.20
1231.00,99.21
1230.00,99.22
1229.00,99.23
1228.00,99.24
1227.00,99.25
1226.00,99.26
1225.00,99.26
1224.00,99.28
1223.00,99.28
1222.00,99.27
1221.00,99.27
1220.00,99.26
1219.00,99.25
1218.00,99.24
1217.00,99.23
1216.00,99.22
1215.00,99.20
1214.00,99.20
1213.00,99.19
1212.00,99.20
1211.00,99.20
1210.00,99.19
1209.00,99.18
1208.00,99.18
1207.00,99.18
1206.00,99.17
1205.00,99.17
1204.00,99.17
1203.00,99.16
1202.00,99.15
1201.00,99.14
1200.00,99.15
1199.00,99.15
1198.00,99.14
1197.00,99.14
1196.00,99.14
1195.00,99.14
1194.00,99.14
1193.00,99.14
1192.00,99.14
1191.00,99.14
1190.00,99.12
1189.00,99.12
1188.00,99.11
1187.00,99.11
1186.00,99.11
1185.00,99.11
1184.00,99.11
1183.00,99.10
1182.00,99.09
1181.00,99.07
1180.00,99.05
1179.00,99.02
1178.00,98.98
1177.00,98.96
1176.00,98.96
1175.00,98.97
1174.00,98.97
1173.00,98.97
1172.00,98.97
1171.00,98.95
1170.00,98.93
1169.00,98.90
1168.00,98.89
1167.00,98.87
1166.00,98.85
1165.00,98.84
1164.00,98.83
1163.00,98.82
1162.00,98.81
1161.00,98.82
1160.00,98.82
1159.00,98.83
1158.00,98.83
1157.00,98.83
1156.00,98.83
1155.00,98.84
1154.00,98.85
1153.00,98.86
1152.00,98.86
1151.00,98.86
1150.00,98.86
1149.00,98.86
1148.00,98.87
1147.00,98.88
1146.00,98.88
1145.00,98.88
1144.00,98.88
1143.00,98.89
1142.00,98.89
1141.00,98.89
1140.00,98.90
1139.00,98.90
1138.00,98.91
1137.00,98.92
1136.00,98.93
1135.00,98.93
1134.00,98.93
1133.00,98.92
1132.00,98.92
1131.00,98.92
1130.00,98.93
1129.00,98.93
1128.00,98.95
1127.00,98.95
1126.00,98.95
1125.00,98.94
1124.00,98.93
1123.00,98.92
1122.00,98.90
1121.00,98.89
1120.00,98.90
1119.00,98.90
1118.00,98.91
1117.00,98.92
1116.00,98.93
1115.00,98.95
1114.00,98.95
1113.00,98.96
1112.00,98.96
1111.00,98.96
1110.00,98.96
1109.00,98.97
1108.00,98.97
1107.00,98.97
1106.00,98.96
1105.00,98.96
1104.00,98.96
1103.00,98.96
1102.00,98.96
1101.00,98.95
1100.00,98.95
1099.00,98.95
1098.00,98.94
1097.00,98.94
1096.00,98.93
1095.00,98.91
1094.00,98.90
1093.00,98.89
1092.00,98.88
1091.00,98.87
1090.00,98.86
1089.00,98.85
1088.00,98.84
1087.00,98.84
1086.00,98.82
1085.00,98.81
1084.00,98.80
1083.00,98.80
1082.00,98.80
1081.00,98.80
1080.00,98.81
1079.00,98.81
1078.00,98.81
1077.00,98.81
1076.00,98.82
1075.00,98.84
1074.00,98.85
1073.00,98.87
1072.00,98.88
1071.00,98.89
1070.00,98.89
1069.00,98.89
1068.00,98.89
1067.00,98.89
1066.00,98.88
1065.00,98.87
1064.00,98.87
1063.00,98.88
1062.00,98.88
1061.00,98.89
1060.00,98.90
1059.00,98.91
1058.00,98.91
1057.00,98.92
1056.00,98.92
1055.00,98.92
1054.00,98.91
1053.00,98.91
1052.00,98.91
1051.00,98.92
1050.00,98.93
1049.00,98.95
1048.00,98.97
1047.00,98.99
1046.00,98.99
1045.00,99.00
1044.00,99.00
1043.00,99.01
1042.00,99.01
1041.00,99.02
1040.00,99.03
1039.00,99.03
1038.00,99.04
1037.00,99.04
1036.00,99.05
1035.00,99.05
1034.00,99.04
1033.00,99.04
1032.00,99.05
1031.00,99.05
1030.00,99.04
1029.00,99.04
1028.00,99.04
1027.00,99.05
1026.00,99.05
1025.00,99.06
1024.00,99.07
1023.00,99.08
1022.00,99.08
1021.00,99.08
1020.00,99.09
1019.00,99.09
1018.00,99.10
1017.00,99.10
1016.00,99.11
1015.00,99.11
1014.00,99.11
1013.00,99.11
1012.00,99.12
1011.00,99.12
1010.00,99.12
1009.00,99.11
1008.00,99.11
1007.00,99.11
1006.00,99.11
1005.00,99.10
1004.00,99.10
1003.00,99.09
1002.00,99.07
1001.00,99.07
1000.00,99.06
999.00,99.03
998.00,99.00
997.00,98.95
996.00,98.90
995.00,98.85
994.00,98.80
993.00,98.75
992.00,98.72
991.00,98.72
990.00,98.73
989.00,98.78
988.00,98.84
987.00,98.91
986.00,98.97
985.00,99.02
984.00,99.07
983.00,99.11
982.00,99.13
981.00,99.15
980.00,99.17
979.00,99.19
978.00,99.21
977.00,99.22
976.00,99.22
975.00,99.23
974.00,99.23
973.00,99.24
972.00,99.24
971.00,99.24
970.00,99.23
969.00,99.21
968.00,99.19
967.00,99.17
966.00,99.15
965.00,99.14
964.00,99.15
963.00,99.16
962.00,99.19
961.00,99.22
960.00,99.25
959.00,99.27
958.00,99.29
957.00,99.30
956.00,99.32
955.00,99.33
954.00,99.33
953.00,99.33
952.00,99.33
951.00,99.33
950.00,99.33
949.00,99.33
948.00,99.34
947.00,99.34
946.00,99.33
945.00,99.33
944.00,99.33
943.00,99.33
942.00,99.32
941.00,99.31
940.00,99.31
939.00,99.30
938.00,99.30
937.00,99.30
936.00,99.30
935.00,99.29
934.00,99.29
933.00,99.28
932.00,99.28
931.00,99.28
930.00,99.27
929.00,99.26
928.00,99.26
927.00,99.25
926.00,99.24
925.00,99.24
924.00,99.23
923.00,99.22
922.00,99.20
921.00,99.17
920.00,99.15
919.00,99.11
918.00,99.07
917.00,99.01
916.00,98.93
915.00,98.82
914.00,98.67
913.00,98.48
912.00,98.25
911.00,98.01
910.00,97.79
909.00,97.67
908.00,97.68
907.00,97.81
906.00,98.02
905.00,98.26
904.00,98.47
903.00,98.63
902.00,98.75
901.00,98.84
900.00,98.91
899.00,98.96
898.00,99.00
897.00,99.02
896.00,99.04
895.00,99.06
894.00,99.06
893.00,99.06
892.00,99.06
891.00,99.04
890.00,99.03
889.00,99.02
888.00,99.03
887.00,99.03
886.00,99.04
885.00,99.04
884.00,99.05
883.00,99.07
882.00,99.09
881.00,99.10
880.00,99.12
879.00,99.12
878.00,99.13
877.00,99.12
876.00,99.13
875.00,99.13
874.00,99.13
873.00,99.15
872.00,99.18
871.00,99.21
870.00,99.23
869.00,99.24
868.00,99.25
867.00,99.26
866.00,99.26
865.00,99.26
864.00,99.25
863.00,99.25
862.00,99.24
861.00,99.24
860.00,99.24
859.00,99.25
858.00,99.25
857.00,99.25
856.00,99.24
855.00,99.23
854.00,99.21
853.00,99.19
852.00,99.18
851.00,99.19
850.00,99.20
849.00,99.21
848.00,99.22
847.00,99.23
846.00,99.22
845.00,99.22
844.00,99.22
843.00,99.21
842.00,99.20
841.00,99.20
840.00,99.21
839.00,99.21
838.00,99.21
837.00,99.21
836.00,99.21
835.00,99.22
834.00,99.21
833.00,99.19
832.00,99.18
831.00,99.17
830.00,99.17
829.00,99.18
828.00,99.20
827.00,99.20
826.00,99.20
825.00,99.18
824.00,99.17
823.00,99.16
822.00,99.15
821.00,99.14
820.00,99.14
819.00,99.14
818.00,99.13
817.00,99.11
816.00,99.11
815.00,99.10
814.00,99.09
813.00,99.08
812.00,99.08
811.00,99.07
810.00,99.07
809.00,99.06
808.00,99.05
807.00,99.05
806.00,99.05
805.00,99.05
804.00,99.05
803.00,99.06
802.00,99.06
801.00,99.06
800.00,99.07
799.00,99.08
798.00,99.07
797.00,99.06
796.00,99.06
795.00,99.07
794.00,99.07
793.00,99.05
792.00,99.04
791.00,99.03
790.00,99.02
789.00,99.03
788.00,99.04
787.00,99.04
786.00,99.02
785.00,98.98
784.00,98.96
783.00,98.95
782.00,98.95
781.00,98.93
780.00,98.91
779.00,98.90
778.00,98.90
777.00,98.88
776.00,98.87
775.00,98.85
774.00,98.83
773.00,98.79
772.00,98.76
771.00,98.73
770.00,98.69
769.00,98.66
768.00,98.65
767.00,98.65
766.00,98.64
765.00,98.63
764.00,98.62
763.00,98.62
762.00,98.62
761.00,98.61
760.00,98.60
759.00,98.57
758.00,98.53
757.00,98.47
756.00,98.43
755.00,98.40
754.00,98.36
753.00,98.30
752.00,98.25
751.00,98.20
750.00,98.16
749.00,98.08
748.00,98.00
747.00,97.91
746.00,97.80
745.00,97.67
744.00,97.54
743.00,97.41
742.00,97.23
741.00,96.98
740.00,96.66
739.00,96.28
738.00,95.76
737.00,94.97
736.00,93.71
735.00,91.54
734.00,87.94
733.00,82.90
732.00,77.49
731.00,73.60
730.00,72.69
729.00,74.68
728.00,78.09
727.00,81.15
726.00,82.84
725.00,82.97
724.00,81.57
723.00,78.43
722.00,73.36
721.00,67.09
720.00,61.66
719.00,59.44
718.00,61.23
717.00,65.94
716.00,71.73
715.00,77.14
714.00,81.56
713.00,84.94
712.00,87.44
711.00,89.27
710.00,90.67
709.00,91.79
708.00,92.70
707.00,93.43
706.00,94.02
705.00,94.55
704.00,95.01
703.00,95.39
702.00,95.72
701.00,96.02
700.00,96.28
699.00,96.49
698.00,96.66
697.00,96.84
696.00,96.99
695.00,97.09
694.00,97.17
693.00,97.27
692.00,97.36
691.00,97.42
690.00,97.47
689.00,97.53
688.00,97.59
687.00,97.62
686.00,97.65
685.00,97.69
684.00,97.74
683.00,97.78
682.00,97.82
681.00,97.88
680.00,97.94
679.00,97.96
678.00,97.96
677.00,97.98
676.00,98.02
675.00,98.02
674.00,98.01
673.00,98.03
672.00,98.06
671.00,98.09
670.00,98.12
669.00,98.20
668.00,98.32
667.00,98.38
666.00,98.36
665.00,98.33
664.00,98.32
663.00,98.30
662.00,98.29
661.00,98.30
660.00,98.33
659.00,98.33
658.00,98.32
657.00,98.32
656.00,98.34
655.00,98.36
654.00,98.38
653.00,98.42
652.00,98.44
651.00,98.41
650.00,98.36
