Created as New Dataset,PLA (polylactic acid) GF
cm-1,%T
4000.00,100.08
3999.00,100.08
3998.00,100.08
3997.00,100.08
3996.00,100.08
3995.00,100.08
3994.00,100.09
3993.00,100.08
3992.00,100.08
3991.00,100.08
3990.00,100.08
3989.00,100.08
3988.00,100.08
3987.00,100.08
3986.00,100.08
3985.00,100.08
3984.00,100.08
3983.00,100.08
3982.00,100.08
3981.00,100.08
3980.00,100.08
3979.00,100.08
3978.00,100.08
3977.00,100.08
3976.00,100.09
3975.00,100.09
3974.00,100.08
3973.00,100.08
3972.00,100.08
3971.00,100.08
3970.00,100.08
3969.00,100.08
3968.00,100.08
3967.00,100.08
3966.00,100.08
3965.00,100.08
3964.00,100.08
3963.00,100.08
3962.00,100.08
3961.00,100.08
3960.00,100.08
3959.00,100.08
3958.00,100.08
3957.00,100.08
3956.00,100.08
3955.00,100.08
3954.00,100.08
3953.00,100.08
3952.00,100.08
3951.00,100.09
3950.00,100.09
3949.00,100.09
3948.00,100.09
3947.00,100.08
3946.00,100.08
3945.00,100.08
3944.00,100.07
3943.00,100.07
3942.00,100.08
3941.00,100.08
3940.00,100.08
3939.00,100.08
3938.00,100.08
3937.00,100.08
3936.00,100.08
3935.00,100.08
3934.00,100.08
3933.00,100.08
3932.00,100.08
3931.00,100.08
3930.00,100.08
3929.00,100.08
3928.00,100.09
3927.00,100.09
3926.00,100.08
3925.00,100.08
3924.00,100.07
3923.00,100.07
3922.00,100.07
3921.00,100.07
3920.00,100.07
3919.00,100.07
3918.00,100.07
3917.00,100.07
3916.00,100.07
3915.00,100.07
3914.00,100.07
3913.00,100.07
3912.00,100.07
3911.00,100.07
3910.00,100.07
3909.00,100.07
3908.00,100.07
3907.00,100.07
3906.00,100.06
3905.00,100.06
3904.00,100.05
3903.00,100.06
3902.00,100.06
3901.00,100.06
3900.00,100.06
3899.00,100.06
3898.00,100.06
3897.00,100.07
3896.00,100.07
3895.00,100.07
3894.00,100.07
3893.00,100.06
3892.00,100.06
3891.00,100.05
3890.00,100.05
3889.00,100.05
3888.00,100.05
3887.00,100.05
3886.00,100.06
3885.00,100.06
3884.00,100.07
3883.00,100.07
3882.00,100.06
3881.00,100.06
3880.00,100.06
3879.00,100.07
3878.00,100.07
3877.00,100.07
3876.00,100.06
3875.00,100.06
3874.00,100.06
3873.00,100.06
3872.00,100.05
3871.00,100.04
3870.00,100.04
3869.00,100.05
3868.00,100.05
3867.00,100.04
3866.00,100.04
3865.00,100.05
3864.00,100.05
3863.00,100.05
3862.00,100.05
3861.00,100.05
3860.00,100.05
3859.00,100.05
3858.00,100.05
3857.00,100.05
3856.00,100.04
3855.00,100.03
3854.00,100.03
3853.00,100.04
3852.00,100.04
3851.00,100.04
3850.00,100.04
3849.00,100.05
3848.00,100.05
3847.00,100.06
3846.00,100.06
3845.00,100.05
3844.00,100.05
3843.00,100.04
3842.00,100.04
3841.00,100.04
3840.00,100.04
3839.00,100.04
3838.00,100.04
3837.00,100.04
3836.00,100.04
3835.00,100.04
3834.00,100.04
3833.00,100.04
3832.00,100.04
3831.00,100.05
3830.00,100.05
3829.00,100.05
3828.00,100.05
3827.00,100.05
3826.00,100.05
3825.00,100.05
3824.00,100.04
3823.00,100.03
3822.00,100.03
3821.00,100.03
3820.00,100.03
3819.00,100.03
3818.00,100.03
3817.00,100.02
3816.00,100.03
3815.00,100.04
3814.00,100.04
3813.00,100.04
3812.00,100.04
3811.00,100.04
3810.00,100.04
3809.00,100.04
3808.00,100.03
3807.00,100.03
3806.00,100.03
3805.00,100.04
3804.00,100.04
3803.00,100.03
3802.00,100.04
3801.00,100.04
3800.00,100.04
3799.00,100.04
3798.00,100.04
3797.00,100.04
3796.00,100.04
3795.00,100.04
3794.00,100.05
3793.00,100.05
3792.00,100.05
3791.00,100.05
3790.00,100.05
3789.00,100.05
3788.00,100.05
3787.00,100.04
3786.00,100.04
3785.00,100.04
3784.00,100.04
3783.00,100.04
3782.00,100.03
3781.00,100.03
3780.00,100.03
3779.00,100.03
3778.00,100.03
3777.00,100.03
3776.00,100.03
3775.00,100.03
3774.00,100.03
3773.00,100.03
3772.00,100.03
3771.00,100.02
3770.00,100.02
3769.00,100.02
3768.00,100.02
3767.00,100.02
3766.00,100.02
3765.00,100.03
3764.00,100.03
3763.00,100.03
3762.00,100.03
3761.00,100.03
3760.00,100.03
3759.00,100.03
3758.00,100.02
3757.00,100.02
3756.00,100.02
3755.00,100.02
3754.00,100.01
3753.00,100.01
3752.00,100.00
3751.00,100.00
3750.00,99.99
3749.00,99.99
3748.00,99.99
3747.00,99.99
3746.00,99.99
3745.00,100.00
3744.00,100.01
3743.00,100.01
3742.00,100.02
3741.00,100.01
3740.00,100.02
3739.00,100.02
3738.00,100.02
3737.00,100.02
3736.00,100.02
3735.00,100.02
3734.00,100.01
3733.00,100.01
3732.00,100.01
3731.00,100.02
3730.00,100.02
3729.00,100.03
3728.00,100.03
3727.00,100.03
3726.00,100.04
3725.00,100.03
3724.00,100.03
3723.00,100.02
3722.00,100.02
3721.00,100.02
3720.00,100.02
3719.00,100.02
3718.00,100.02
3717.00,100.02
3716.00,100.02
3715.00,100.02
3714.00,100.02
3713.00,100.02
3712.00,100.02
3711.00,100.02
3710.00,100.02
3709.00,100.02
3708.00,100.02
3707.00,100.03
3706.00,100.03
3705.00,100.03
3704.00,100.04
3703.00,100.04
3702.00,100.04
3701.00,100.04
3700.00,100.04
3699.00,100.04
3698.00,100.04
3697.00,100.03
3696.00,100.03
3695.00,100.03
3694.00,100.03
3693.00,100.02
3692.00,100.01
3691.00,100.00
3690.00,99.99
3689.00,99.99
3688.00,100.00
3687.00,100.01
3686.00,100.02
3685.00,100.02
3684.00,100.02
3683.00,100.02
3682.00,100.01
3681.00,100.00
3680.00,100.00
3679.00,99.99
3678.00,99.99
3677.00,99.98
3676.00,99.97
3675.00,99.97
3674.00,99.98
3673.00,99.97
3672.00,99.97
3671.00,99.97
3670.00,99.97
3669.00,99.98
3668.00,99.98
3667.00,99.98
3666.00,99.98
3665.00,99.98
3664.00,99.98
3663.00,99.98
3662.00,99.99
3661.00,99.99
3660.00,99.99
3659.00,99.98
3658.00,99.98
3657.00,99.97
3656.00,99.97
3655.00,99.97
3654.00,99.97
3653.00,99.97
3652.00,99.97
3651.00,99.97
3650.00,99.97
3649.00,99.98
3648.00,99.98
3647.00,99.98
3646.00,99.98
3645.00,99.98
3644.00,99.98
3643.00,99.99
3642.00,99.99
3641.00,100.00
3640.00,100.00
3639.00,100.01
3638.00,100.01
3637.00,100.02
3636.00,100.01
3635.00,100.01
3634.00,100.00
3633.00,100.00
3632.00,100.00
3631.00,100.00
3630.00,99.99
3629.00,100.00
3628.00,100.01
3627.00,100.01
3626.00,100.01
3625.00,100.02
3624.00,100.02
3623.00,100.03
3622.00,100.03
3621.00,100.03
3620.00,100.02
3619.00,100.01
3618.00,100.01
3617.00,100.00
3616.00,100.00
3615.00,100.00
3614.00,100.00
3613.00,100.01
3612.00,100.01
3611.00,100.02
3610.00,100.02
3609.00,100.01
3608.00,100.01
3607.00,100.02
3606.00,100.02
3605.00,100.03
3604.00,100.03
3603.00,100.04
3602.00,100.04
3601.00,100.03
3600.00,100.03
3599.00,100.03
3598.00,100.02
3597.00,100.02
3596.00,100.02
3595.00,100.02
3594.00,100.02
3593.00,100.02
3592.00,100.02
3591.00,100.02
3590.00,100.02
3589.00,100.01
3588.00,100.01
3587.00,100.01
3586.00,100.00
3585.00,100.00
3584.00,100.00
3583.00,100.01
3582.00,100.01
3581.00,100.01
3580.00,100.01
3579.00,100.01
3578.00,100.01
3577.00,100.01
3576.00,100.01
3575.00,100.01
3574.00,100.01
3573.00,100.01
3572.00,100.01
3571.00,100.01
3570.00,100.00
3569.00,100.00
3568.00,100.00
3567.00,100.00
3566.00,100.00
3565.00,100.00
3564.00,99.99
3563.00,100.00
3562.00,100.00
3561.00,100.00
3560.00,100.00
3559.00,100.00
3558.00,100.00
3557.00,100.00
3556.00,100.00
3555.00,100.00
3554.00,100.00
3553.00,100.00
3552.00,100.00
3551.00,100.00
3550.00,100.00
3549.00,100.00
3548.00,100.00
3547.00,100.00
3546.00,100.00
3545.00,100.00
3544.00,100.00
3543.00,99.99
3542.00,99.99
3541.00,99.98
3540.00,99.98
3539.00,99.98
3538.00,99.98
3537.00,99.98
3536.00,99.98
3535.00,99.98
3534.00,99.98
3533.00,99.98
3532.00,99.98
3531.00,99.97
3530.00,99.97
3529.00,99.97
3528.00,99.96
3527.00,99.96
3526.00,99.95
3525.00,99.95
3524.00,99.95
3523.00,99.95
3522.00,99.95
3521.00,99.94
3520.00,99.94
3519.00,99.94
3518.00,99.93
3517.00,99.93
3516.00,99.93
3515.00,99.93
3514.00,99.92
3513.00,99.92
3512.00,99.92
3511.00,99.92
3510.00,99.91
3509.00,99.91
3508.00,99.91
3507.00,99.91
3506.00,99.91
3505.00,99.91
3504.00,99.91
3503.00,99.92
3502.00,99.91
3501.00,99.91
3500.00,99.92
3499.00,99.92
3498.00,99.92
3497.00,99.92
3496.00,99.92
3495.00,99.93
3494.00,99.93
3493.00,99.93
3492.00,99.93
3491.00,99.94
3490.00,99.94
3489.00,99.94
3488.00,99.94
3487.00,99.95
3486.00,99.95
3485.00,99.95
3484.00,99.96
3483.00,99.96
3482.00,99.96
3481.00,99.96
3480.00,99.97
3479.00,99.97
3478.00,99.97
3477.00,99.98
3476.00,99.98
3475.00,99.98
3474.00,99.99
3473.00,99.99
3472.00,99.99
3471.00,100.00
3470.00,100.00
3469.00,100.00
3468.00,100.00
3467.00,100.00
3466.00,100.00
3465.00,100.00
3464.00,100.00
3463.00,100.00
3462.00,100.00
3461.00,100.00
3460.00,100.00
3459.00,100.00
3458.00,100.00
3457.00,100.00
3456.00,100.00
3455.00,100.00
3454.00,100.00
3453.00,100.00
3452.00,100.00
3451.00,100.00
3450.00,100.00
3449.00,100.00
3448.00,100.00
3447.00,100.00
3446.00,100.00
3445.00,100.00
3444.00,100.00
3443.00,100.00
3442.00,100.00
3441.00,100.00
3440.00,100.00
3439.00,100.00
3438.00,100.00
3437.00,100.00
3436.00,100.00
3435.00,100.00
3434.00,100.00
3433.00,100.01
3432.00,100.01
3431.00,100.01
3430.00,100.01
3429.00,100.01
3428.00,100.01
3427.00,100.01
3426.00,100.01
3425.00,100.00
3424.00,100.00
3423.00,100.00
3422.00,100.01
3421.00,100.01
3420.00,100.01
3419.00,100.01
3418.00,100.01
3417.00,100.01
3416.00,100.01
3415.00,100.01
3414.00,100.00
3413.00,100.00
3412.00,100.00
3411.00,100.01
3410.00,100.01
3409.00,100.01
3408.00,100.01
3407.00,100.01
3406.00,100.01
3405.00,100.00
3404.00,100.00
3403.00,100.00
3402.00,100.01
3401.00,100.01
3400.00,100.01
3399.00,100.02
3398.00,100.01
3397.00,100.01
3396.00,100.01
3395.00,100.01
3394.00,100.01
3393.00,100.01
3392.00,100.01
3391.00,100.01
3390.00,100.01
3389.00,100.01
3388.00,100.01
3387.00,100.00
3386.00,100.00
3385.00,100.00
3384.00,100.00
3383.00,100.00
3382.00,100.00
3381.00,100.00
3380.00,99.99
3379.00,99.99
3378.00,99.99
3377.00,99.99
3376.00,99.99
3375.00,99.99
3374.00,99.99
3373.00,100.00
3372.00,100.00
3371.00,100.00
3370.00,100.00
3369.00,100.00
3368.00,99.99
3367.00,99.99
3366.00,99.99
3365.00,100.00
3364.00,100.00
3363.00,100.00
3362.00,100.00
3361.00,99.99
3360.00,99.99
3359.00,99.99
3358.00,99.99
3357.00,99.99
3356.00,99.99
3355.00,99.98
3354.00,99.98
3353.00,99.98
3352.00,99.98
3351.00,99.98
3350.00,99.97
3349.00,99.97
3348.00,99.97
3347.00,99.97
3346.00,99.97
3345.00,99.97
3344.00,99.97
3343.00,99.97
3342.00,99.96
3341.00,99.96
3340.00,99.96
3339.00,99.96
3338.00,99.95
3337.00,99.95
3336.00,99.94
3335.00,99.94
3334.00,99.94
3333.00,99.94
3332.00,99.93
3331.00,99.93
3330.00,99.93
3329.00,99.92
3328.00,99.92
3327.00,99.91
3326.00,99.90
3325.00,99.89
3324.00,99.88
3323.00,99.86
3322.00,99.85
3321.00,99.83
3320.00,99.82
3319.00,99.81
3318.00,99.79
3317.00,99.77
3316.00,99.75
3315.00,99.72
3314.00,99.70
3313.00,99.67
3312.00,99.63
3311.00,99.60
3310.00,99.56
3309.00,99.52
3308.00,99.47
3307.00,99.43
3306.00,99.38
3305.00,99.34
3304.00,99.30
3303.00,99.27
3302.00,99.24
3301.00,99.21
3300.00,99.19
3299.00,99.18
3298.00,99.18
3297.00,99.18
3296.00,99.18
3295.00,99.19
3294.00,99.21
3293.00,99.22
3292.00,99.25
3291.00,99.28
3290.00,99.32
3289.00,99.35
3288.00,99.39
3287.00,99.42
3286.00,99.45
3285.00,99.48
3284.00,99.51
3283.00,99.54
3282.00,99.57
3281.00,99.60
3280.00,99.62
3279.00,99.64
3278.00,99.66
3277.00,99.68
3276.00,99.70
3275.00,99.72
3274.00,99.73
3273.00,99.75
3272.00,99.77
3271.00,99.79
3270.00,99.80
3269.00,99.81
3268.00,99.82
3267.00,99.82
3266.00,99.83
3265.00,99.84
3264.00,99.85
3263.00,99.86
3262.00,99.87
3261.00,99.88
3260.00,99.88
3259.00,99.89
3258.00,99.89
3257.00,99.90
3256.00,99.90
3255.00,99.91
3254.00,99.91
3253.00,99.92
3252.00,99.92
3251.00,99.92
3250.00,99.93
3249.00,99.93
3248.00,99.93
3247.00,99.93
3246.00,99.93
3245.00,99.93
3244.00,99.94
3243.00,99.94
3242.00,99.95
3241.00,99.95
3240.00,99.94
3239.00,99.94
3238.00,99.94
3237.00,99.94
3236.00,99.95
3235.00,99.95
3234.00,99.95
3233.00,99.95
3232.00,99.95
3231.00,99.95
3230.00,99.94
3229.00,99.94
3228.00,99.94
3227.00,99.94
3226.00,99.94
3225.00,99.94
3224.00,99.95
3223.00,99.95
3222.00,99.95
3221.00,99.95
3220.00,99.95
3219.00,99.95
3218.00,99.95
3217.00,99.95
3216.00,99.95
3215.00,99.95
3214.00,99.95
3213.00,99.95
3212.00,99.95
3211.00,99.95
3210.00,99.96
3209.00,99.96
3208.00,99.96
3207.00,99.96
3206.00,99.96
3205.00,99.96
3204.00,99.96
3203.00,99.97
3202.00,99.97
3201.00,99.97
3200.00,99.97
3199.00,99.96
3198.00,99.96
3197.00,99.97
3196.00,99.97
3195.00,99.97
3194.00,99.97
3193.00,99.97
3192.00,99.98
3191.00,99.98
3190.00,99.98
3189.00,99.98
3188.00,99.98
3187.00,99.98
3186.00,99.98
3185.00,99.98
3184.00,99.99
3183.00,99.99
3182.00,99.99
3181.00,99.99
3180.00,99.99
3179.00,99.99
3178.00,99.99
3177.00,100.00
3176.00,100.00
3175.00,100.00
3174.00,100.00
3173.00,100.00
3172.00,100.00
3171.00,100.00
3170.00,100.00
3169.00,100.00
3168.00,100.00
3167.00,100.00
3166.00,100.00
3165.00,100.00
3164.00,100.00
3163.00,100.00
3162.00,100.01
3161.00,100.01
3160.00,100.01
3159.00,100.00
3158.00,100.00
3157.00,100.00
3156.00,99.99
3155.00,99.99
3154.00,99.99
3153.00,99.99
3152.00,100.00
3151.00,100.00
3150.00,100.00
3149.00,100.00
3148.00,100.00
3147.00,100.00
3146.00,100.00
3145.00,100.00
3144.00,100.00
3143.00,100.00
3142.00,100.01
3141.00,100.01
3140.00,100.01
3139.00,100.00
3138.00,100.00
3137.00,100.00
3136.00,100.00
3135.00,100.00
3134.00,100.00
3133.00,100.00
3132.00,99.99
3131.00,99.99
3130.00,99.99
3129.00,99.99
3128.00,99.99
3127.00,99.99
3126.00,99.99
3125.00,99.99
3124.00,99.99
3123.00,99.99
3122.00,99.99
3121.00,99.99
3120.00,99.99
3119.00,99.99
3118.00,99.99
3117.00,99.99
3116.00,99.98
3115.00,99.98
3114.00,99.98
3113.00,99.99
3112.00,99.98
3111.00,99.98
3110.00,99.98
3109.00,99.98
3108.00,99.97
3107.00,99.97
3106.00,99.97
3105.00,99.97
3104.00,99.96
3103.00,99.96
3102.00,99.95
3101.00,99.95
3100.00,99.94
3099.00,99.94
3098.00,99.93
3097.00,99.93
3096.00,99.93
3095.00,99.92
3094.00,99.92
3093.00,99.91
3092.00,99.91
3091.00,99.90
3090.00,99.90
3089.00,99.89
3088.00,99.89
3087.00,99.89
3086.00,99.89
3085.00,99.90
3084.00,99.90
3083.00,99.91
3082.00,99.91
3081.00,99.91
3080.00,99.92
3079.00,99.92
3078.00,99.93
3077.00,99.94
3076.00,99.94
3075.00,99.94
3074.00,99.94
3073.00,99.94
3072.00,99.94
3071.00,99.95
3070.00,99.95
3069.00,99.95
3068.00,99.95
3067.00,99.95
3066.00,99.95
3065.00,99.95
3064.00,99.95
3063.00,99.95
3062.00,99.96
3061.00,99.96
3060.00,99.97
3059.00,99.97
3058.00,99.97
3057.00,99.97
3056.00,99.97
3055.00,99.97
3054.00,99.97
3053.00,99.97
3052.00,99.97
3051.00,99.97
3050.00,99.97
3049.00,99.96
3048.00,99.96
3047.00,99.96
3046.00,99.96
3045.00,99.95
3044.00,99.95
3043.00,99.95
3042.00,99.95
3041.00,99.95
3040.00,99.95
3039.00,99.94
3038.00,99.94
3037.00,99.95
3036.00,99.94
3035.00,99.94
3034.00,99.93
3033.00,99.92
3032.00,99.92
3031.00,99.91
3030.00,99.91
3029.00,99.90
3028.00,99.89
3027.00,99.88
3026.00,99.87
3025.00,99.85
3024.00,99.84
3023.00,99.83
3022.00,99.82
3021.00,99.80
3020.00,99.79
3019.00,99.77
3018.00,99.75
3017.00,99.74
3016.00,99.71
3015.00,99.69
3014.00,99.67
3013.00,99.64
3012.00,99.61
3011.00,99.59
3010.00,99.56
3009.00,99.53
3008.00,99.50
3007.00,99.46
3006.00,99.43
3005.00,99.39
3004.00,99.36
3003.00,99.33
3002.00,99.31
3001.00,99.29
3000.00,99.27
2999.00,99.26
2998.00,99.25
2997.00,99.25
2996.00,99.27
2995.00,99.30
2994.00,99.34
2993.00,99.37
2992.00,99.41
2991.00,99.45
2990.00,99.49
2989.00,99.52
2988.00,99.55
2987.00,99.58
2986.00,99.61
2985.00,99.63
2984.00,99.64
2983.00,99.65
2982.00,99.66
2981.00,99.67
2980.00,99.67
2979.00,99.67
2978.00,99.66
2977.00,99.66
2976.00,99.65
2975.00,99.64
2974.00,99.63
2973.00,99.61
2972.00,99.60
2971.00,99.58
2970.00,99.56
2969.00,99.54
2968.00,99.51
2967.00,99.49
2966.00,99.46
2965.00,99.43
2964.00,99.40
2963.00,99.37
2962.00,99.34
2961.00,99.30
2960.00,99.27
2959.00,99.23
2958.00,99.21
2957.00,99.18
2956.00,99.17
2955.00,99.16
2954.00,99.16
2953.00,99.16
2952.00,99.15
2951.00,99.15
2950.00,99.15
2949.00,99.15
2948.00,99.15
2947.00,99.15
2946.00,99.15
2945.00,99.15
2944.00,99.15
2943.00,99.16
2942.00,99.16
2941.00,99.17
2940.00,99.16
2939.00,99.16
2938.00,99.14
2937.00,99.12
2936.00,99.09
2935.00,99.05
2934.00,99.01
2933.00,98.96
2932.00,98.90
2931.00,98.83
2930.00,98.76
2929.00,98.67
2928.00,98.57
2927.00,98.45
2926.00,98.31
2925.00,98.17
2924.00,98.01
2923.00,97.87
2922.00,97.73
2921.00,97.61
2920.00,97.53
2919.00,97.49
2918.00,97.51
2917.00,97.59
2916.00,97.72
2915.00,97.89
2914.00,98.08
2913.00,98.27
2912.00,98.45
2911.00,98.61
2910.00,98.73
2909.00,98.84
2908.00,98.92
2907.00,98.99
2906.00,99.05
2905.00,99.09
2904.00,99.13
2903.00,99.16
2902.00,99.19
2901.00,99.21
2900.00,99.23
2899.00,99.26
2898.00,99.28
2897.00,99.30
2896.00,99.32
2895.00,99.34
2894.00,99.35
2893.00,99.37
2892.00,99.38
2891.00,99.40
2890.00,99.41
2889.00,99.42
2888.00,99.44
2887.00,99.45
2886.00,99.46
2885.00,99.47
2884.00,99.48
2883.00,99.49
2882.00,99.50
2881.00,99.51
2880.00,99.51
2879.00,99.52
2878.00,99.52
2877.00,99.53
2876.00,99.53
2875.00,99.53
2874.00,99.54
2873.00,99.54
2872.00,99.55
2871.00,99.56
2870.00,99.57
2869.00,99.58
2868.00,99.58
2867.00,99.58
2866.00,99.57
2865.00,99.55
2864.00,99.52
2863.00,99.48
2862.00,99.44
2861.00,99.40
2860.00,99.35
2859.00,99.30
2858.00,99.22
2857.00,99.13
2856.00,99.02
2855.00,98.88
2854.00,98.72
2853.00,98.55
2852.00,98.39
2851.00,98.28
2850.00,98.25
2849.00,98.32
2848.00,98.48
2847.00,98.68
2846.00,98.90
2845.00,99.10
2844.00,99.27
2843.00,99.39
2842.00,99.49
2841.00,99.56
2840.00,99.62
2839.00,99.66
2838.00,99.70
2837.00,99.73
2836.00,99.75
2835.00,99.77
2834.00,99.79
2833.00,99.80
2832.00,99.80
2831.00,99.81
2830.00,99.82
2829.00,99.83
2828.00,99.84
2827.00,99.84
2826.00,99.85
2825.00,99.85
2824.00,99.86
2823.00,99.86
2822.00,99.87
2821.00,99.87
2820.00,99.87
2819.00,99.88
2818.00,99.88
2817.00,99.88
2816.00,99.89
2815.00,99.89
2814.00,99.89
2813.00,99.89
2812.00,99.90
2811.00,99.90
2810.00,99.90
2809.00,99.90
2808.00,99.91
2807.00,99.91
2806.00,99.91
2805.00,99.92
2804.00,99.92
2803.00,99.92
2802.00,99.92
2801.00,99.92
2800.00,99.92
2799.00,99.92
2798.00,99.92
2797.00,99.93
2796.00,99.93
2795.00,99.93
2794.00,99.93
2793.00,99.94
2792.00,99.94
2791.00,99.94
2790.00,99.94
2789.00,99.94
2788.00,99.94
2787.00,99.95
2786.00,99.95
2785.00,99.95
2784.00,99.95
2783.00,99.95
2782.00,99.95
2781.00,99.95
2780.00,99.96
2779.00,99.96
2778.00,99.96
2777.00,99.96
2776.00,99.96
2775.00,99.96
2774.00,99.96
2773.00,99.96
2772.00,99.96
2771.00,99.96
2770.00,99.97
2769.00,99.97
2768.00,99.97
2767.00,99.97
2766.00,99.97
2765.00,99.97
2764.00,99.97
2763.00,99.97
2762.00,99.97
2761.00,99.97
2760.00,99.98
2759.00,99.98
2758.00,99.98
2757.00,99.98
2756.00,99.98
2755.00,99.98
2754.00,99.98
2753.00,99.98
2752.00,99.98
2751.00,99.98
2750.00,99.98
2749.00,99.98
2748.00,99.97
2747.00,99.97
2746.00,99.97
2745.00,99.97
2744.00,99.97
2743.00,99.97
2742.00,99.98
2741.00,99.98
2740.00,99.98
2739.00,99.98
2738.00,99.98
2737.00,99.98
2736.00,99.98
2735.00,99.98
2734.00,99.98
2733.00,99.98
2732.00,99.98
2731.00,99.98
2730.00,99.98
2729.00,99.98
2728.00,99.97
2727.00,99.97
2726.00,99.97
2725.00,99.98
2724.00,99.98
2723.00,99.98
2722.00,99.98
2721.00,99.98
2720.00,99.98
2719.00,99.98
2718.00,99.98
2717.00,99.98
2716.00,99.98
2715.00,99.98
2714.00,99.98
2713.00,99.98
2712.00,99.98
2711.00,99.98
2710.00,99.98
2709.00,99.98
2708.00,99.98
2707.00,99.98
2706.00,99.98
2705.00,99.98
2704.00,99.98
2703.00,99.98
2702.00,99.99
2701.00,99.99
2700.00,99.99
2699.00,99.99
2698.00,99.99
2697.00,99.98
2696.00,99.98
2695.00,99.98
2694.00,99.98
2693.00,99.98
2692.00,99.98
2691.00,99.98
2690.00,99.98
2689.00,99.98
2688.00,99.98
2687.00,99.98
2686.00,99.98
2685.00,99.98
2684.00,99.98
2683.00,99.98
2682.00,99.98
2681.00,99.98
2680.00,99.98
2679.00,99.98
2678.00,99.98
2677.00,99.98
2676.00,99.98
2675.00,99.97
2674.00,99.97
2673.00,99.97
2672.00,99.97
2671.00,99.96
2670.00,99.96
2669.00,99.96
2668.00,99.96
2667.00,99.96
2666.00,99.96
2665.00,99.96
2664.00,99.95
2663.00,99.94
2662.00,99.93
2661.00,99.92
2660.00,99.91
2659.00,99.91
2658.00,99.90
2657.00,99.90
2656.00,99.90
2655.00,99.89
2654.00,99.88
2653.00,99.88
2652.00,99.88
2651.00,99.87
2650.00,99.87
2649.00,99.87
2648.00,99.87
2647.00,99.87
2646.00,99.87
2645.00,99.87
2644.00,99.87
2643.00,99.87
2642.00,99.87
2641.00,99.87
2640.00,99.87
2639.00,99.87
2638.00,99.87
2637.00,99.87
2636.00,99.87
2635.00,99.87
2634.00,99.87
2633.00,99.87
2632.00,99.87
2631.00,99.87
2630.00,99.88
2629.00,99.88
2628.00,99.88
2627.00,99.88
2626.00,99.88
2625.00,99.88
2624.00,99.88
2623.00,99.88
2622.00,99.88
2621.00,99.89
2620.00,99.89
2619.00,99.89
2618.00,99.90
2617.00,99.90
2616.00,99.91
2615.00,99.91
2614.00,99.90
2613.00,99.90
2612.00,99.90
2611.00,99.90
2610.00,99.90
2609.00,99.91
2608.00,99.91
2607.00,99.91
2606.00,99.91
2605.00,99.91
2604.00,99.91
2603.00,99.91
2602.00,99.91
2601.00,99.91
2600.00,99.91
2599.00,99.91
2598.00,99.91
2597.00,99.92
2596.00,99.92
2595.00,99.92
2594.00,99.92
2593.00,99.92
2592.00,99.92
2591.00,99.92
2590.00,99.92
2589.00,99.92
2588.00,99.92
2587.00,99.92
2586.00,99.92
2585.00,99.92
2584.00,99.92
2583.00,99.92
2582.00,99.93
2581.00,99.93
2580.00,99.93
2579.00,99.93
2578.00,99.93
2577.00,99.93
2576.00,99.93
2575.00,99.93
2574.00,99.93
2573.00,99.93
2572.00,99.93
2571.00,99.93
2570.00,99.93
2569.00,99.93
2568.00,99.93
2567.00,99.93
2566.00,99.94
2565.00,99.94
2564.00,99.94
2563.00,99.95
2562.00,99.95
2561.00,99.95
2560.00,99.95
2559.00,99.95
2558.00,99.95
2557.00,99.95
2556.00,99.95
2555.00,99.95
2554.00,99.95
2553.00,99.95
2552.00,99.95
2551.00,99.95
2550.00,99.96
2549.00,99.96
2548.00,99.96
2547.00,99.96
2546.00,99.96
2545.00,99.96
2544.00,99.96
2543.00,99.96
2542.00,99.96
2541.00,99.96
2540.00,99.96
2539.00,99.96
2538.00,99.97
2537.00,99.97
2536.00,99.97
2535.00,99.96
2534.00,99.96
2533.00,99.96
2532.00,99.96
2531.00,99.97
2530.00,99.97
2529.00,99.97
2528.00,99.97
2527.00,99.97
2526.00,99.97
2525.00,99.97
2524.00,99.97
2523.00,99.97
2522.00,99.97
2521.00,99.97
2520.00,99.98
2519.00,99.98
2518.00,99.98
2517.00,99.98
2516.00,99.98
2515.00,99.98
2514.00,99.98
2513.00,99.98
2512.00,99.98
2511.00,99.97
2510.00,99.97
2509.00,99.97
2508.00,99.97
2507.00,99.97
2506.00,99.97
2505.00,99.97
2504.00,99.97
2503.00,99.97
2502.00,99.97
2501.00,99.97
2500.00,99.97
2499.00,99.97
2498.00,99.98
2497.00,99.98
2496.00,99.98
2495.00,99.98
2494.00,99.98
2493.00,99.97
2492.00,99.97
2491.00,99.97
2490.00,99.97
2489.00,99.98
2488.00,99.98
2487.00,99.99
2486.00,99.99
2485.00,99.99
2484.00,99.99
2483.00,99.99
2482.00,99.99
2481.00,99.99
2480.00,99.99
2479.00,99.99
2478.00,100.00
2477.00,100.00
2476.00,100.00
2475.00,100.00
2474.00,99.99
2473.00,99.99
2472.00,99.99
2471.00,99.99
2470.00,100.00
2469.00,99.99
2468.00,99.99
2467.00,99.99
2466.00,99.99
2465.00,99.99
2464.00,99.99
2463.00,99.98
2462.00,99.98
2461.00,99.98
2460.00,99.98
2459.00,99.98
2458.00,99.97
2457.00,99.97
2456.00,99.96
2455.00,99.96
2454.00,99.96
2453.00,99.96
2452.00,99.95
2451.00,99.95
2450.00,99.95
2449.00,99.96
2448.00,99.96
2447.00,99.96
2446.00,99.96
2445.00,99.96
2444.00,99.96
2443.00,99.96
2442.00,99.96
2441.00,99.97
2440.00,99.97
2439.00,99.97
2438.00,99.97
2437.00,99.97
2436.00,99.97
2435.00,99.97
2434.00,99.97
2433.00,99.98
2432.00,99.98
2431.00,99.98
2430.00,99.98
2429.00,99.98
2428.00,99.98
2427.00,99.98
2426.00,99.98
2425.00,99.98
2424.00,99.98
2423.00,99.99
2422.00,99.99
2421.00,99.99
2420.00,99.99
2419.00,99.98
2418.00,99.98
2417.00,99.99
2416.00,99.99
2415.00,99.99
2414.00,99.98
2413.00,99.98
2412.00,99.98
2411.00,99.98
2410.00,99.98
2409.00,99.98
2408.00,99.98
2407.00,99.99
2406.00,100.00
2405.00,100.01
2404.00,100.01
2403.00,100.01
2402.00,100.01
2401.00,100.01
2400.00,100.01
2399.00,100.00
2398.00,100.00
2397.00,100.00
2396.00,100.00
2395.00,100.00
2394.00,100.00
2393.00,100.01
2392.00,100.01
2391.00,100.02
2390.00,100.02
2389.00,100.03
2388.00,100.03
2387.00,100.04
2386.00,100.04
2385.00,100.05
2384.00,100.06
2383.00,100.07
2382.00,100.08
2381.00,100.09
2380.00,100.10
2379.00,100.10
2378.00,100.10
2377.00,100.10
2376.00,100.09
2375.00,100.08
2374.00,100.08
2373.00,100.08
2372.00,100.09
2371.00,100.09
2370.00,100.10
2369.00,100.10
2368.00,100.10
2367.00,100.10
2366.00,100.09
2365.00,100.09
2364.00,100.08
2363.00,100.07
2362.00,100.07
2361.00,100.07
2360.00,100.07
2359.00,100.07
2358.00,100.07
2357.00,100.06
2356.00,100.05
2355.00,100.05
2354.00,100.05
2353.00,100.05
2352.00,100.05
2351.00,100.05
2350.00,100.05
2349.00,100.04
2348.00,100.04
2347.00,100.04
2346.00,100.03
2345.00,100.03
2344.00,100.01
2343.00,100.01
2342.00,100.00
2341.00,100.00
2340.00,99.99
2339.00,99.98
2338.00,99.97
2337.00,99.98
2336.00,99.98
2335.00,99.99
2334.00,99.99
2333.00,99.99
2332.00,99.99
2331.00,99.99
2330.00,99.99
2329.00,99.98
2328.00,99.95
2327.00,99.91
2326.00,99.86
2325.00,99.81
2324.00,99.77
2323.00,99.77
2322.00,99.78
2321.00,99.81
2320.00,99.83
2319.00,99.85
2318.00,99.86
2317.00,99.87
2316.00,99.88
2315.00,99.89
2314.00,99.90
2313.00,99.91
2312.00,99.91
2311.00,99.91
2310.00,99.91
2309.00,99.90
2308.00,99.90
2307.00,99.89
2306.00,99.89
2305.00,99.89
2304.00,99.89
2303.00,99.89
2302.00,99.89
2301.00,99.88
2300.00,99.88
2299.00,99.87
2298.00,99.87
2297.00,99.87
2296.00,99.86
2295.00,99.85
2294.00,99.84
2293.00,99.83
2292.00,99.82
2291.00,99.81
2290.00,99.80
2289.00,99.79
2288.00,99.78
2287.00,99.77
2286.00,99.77
2285.00,99.77
2284.00,99.77
2283.00,99.77
2282.00,99.78
2281.00,99.78
2280.00,99.79
2279.00,99.80
2278.00,99.81
2277.00,99.81
2276.00,99.82
2275.00,99.82
2274.00,99.83
2273.00,99.83
2272.00,99.84
2271.00,99.84
2270.00,99.85
2269.00,99.86
2268.00,99.86
2267.00,99.87
2266.00,99.87
2265.00,99.88
2264.00,99.88
2263.00,99.88
2262.00,99.87
2261.00,99.87
2260.00,99.86
2259.00,99.84
2258.00,99.84
2257.00,99.84
2256.00,99.85
2255.00,99.86
2254.00,99.87
2253.00,99.88
2252.00,99.89
2251.00,99.89
2250.00,99.89
2249.00,99.89
2248.00,99.88
2247.00,99.87
2246.00,99.87
2245.00,99.88
2244.00,99.88
2243.00,99.89
2242.00,99.89
2241.00,99.88
2240.00,99.87
2239.00,99.86
2238.00,99.85
2237.00,99.85
2236.00,99.85
2235.00,99.85
2234.00,99.85
2233.00,99.85
2232.00,99.85
2231.00,99.84
2230.00,99.84
2229.00,99.84
2228.00,99.84
2227.00,99.85
2226.00,99.86
2225.00,99.86
2224.00,99.86
2223.00,99.85
2222.00,99.85
2221.00,99.86
2220.00,99.87
2219.00,99.87
2218.00,99.88
2217.00,99.89
2216.00,99.89
2215.00,99.88
2214.00,99.88
2213.00,99.87
2212.00,99.87
2211.00,99.87
2210.00,99.87
2209.00,99.87
2208.00,99.87
2207.00,99.87
2206.00,99.87
2205.00,99.87
2204.00,99.87
2203.00,99.86
2202.00,99.85
2201.00,99.83
2200.00,99.83
2199.00,99.83
2198.00,99.83
2197.00,99.84
2196.00,99.84
2195.00,99.83
2194.00,99.82
2193.00,99.81
2192.00,99.79
2191.00,99.77
2190.00,99.76
2189.00,99.75
2188.00,99.75
2187.00,99.74
2186.00,99.74
2185.00,99.76
2184.00,99.78
2183.00,99.80
2182.00,99.83
2181.00,99.84
2180.00,99.85
2179.00,99.84
2178.00,99.82
2177.00,99.81
2176.00,99.81
2175.00,99.82
2174.00,99.83
2173.00,99.83
2172.00,99.81
2171.00,99.78
2170.00,99.74
2169.00,99.71
2168.00,99.68
2167.00,99.65
2166.00,99.64
2165.00,99.63
2164.00,99.60
2163.00,99.56
2162.00,99.52
2161.00,99.54
2160.00,99.65
2159.00,99.84
2158.00,100.04
2157.00,100.17
2156.00,100.22
2155.00,100.22
2154.00,100.20
2153.00,100.17
2152.00,100.14
2151.00,100.10
2150.00,100.07
2149.00,100.05
2148.00,100.04
2147.00,100.04
2146.00,100.05
2145.00,100.07
2144.00,100.08
2143.00,100.08
2142.00,100.08
2141.00,100.07
2140.00,100.05
2139.00,100.03
2138.00,100.03
2137.00,100.04
2136.00,100.07
2135.00,100.10
2134.00,100.14
2133.00,100.17
2132.00,100.18
2131.00,100.17
2130.00,100.14
2129.00,100.12
2128.00,100.10
2127.00,100.08
2126.00,100.06
2125.00,100.04
2124.00,100.02
2123.00,100.00
2122.00,99.99
2121.00,99.97
2120.00,99.95
2119.00,99.94
2118.00,99.93
2117.00,99.91
2116.00,99.89
2115.00,99.87
2114.00,99.86
2113.00,99.85
2112.00,99.85
2111.00,99.85
2110.00,99.85
2109.00,99.85
2108.00,99.85
2107.00,99.85
2106.00,99.86
2105.00,99.86
2104.00,99.86
2103.00,99.85
2102.00,99.84
2101.00,99.83
2100.00,99.84
2099.00,99.85
2098.00,99.86
2097.00,99.88
2096.00,99.89
2095.00,99.90
2094.00,99.91
2093.00,99.91
2092.00,99.90
2091.00,99.90
2090.00,99.89
2089.00,99.89
2088.00,99.87
2087.00,99.86
2086.00,99.84
2085.00,99.83
2084.00,99.82
2083.00,99.81
2082.00,99.80
2081.00,99.80
2080.00,99.80
2079.00,99.80
2078.00,99.80
2077.00,99.81
2076.00,99.82
2075.00,99.82
2074.00,99.83
2073.00,99.83
2072.00,99.83
2071.00,99.84
2070.00,99.84
2069.00,99.84
2068.00,99.84
2067.00,99.84
2066.00,99.83
2065.00,99.83
2064.00,99.82
2063.00,99.81
2062.00,99.81
2061.00,99.81
2060.00,99.82
2059.00,99.83
2058.00,99.82
2057.00,99.81
2056.00,99.79
2055.00,99.78
2054.00,99.77
2053.00,99.75
2052.00,99.71
2051.00,99.66
2050.00,99.63
2049.00,99.64
2048.00,99.68
2047.00,99.71
2046.00,99.74
2045.00,99.75
2044.00,99.74
2043.00,99.72
2042.00,99.71
2041.00,99.71
2040.00,99.72
2039.00,99.71
2038.00,99.70
2037.00,99.68
2036.00,99.67
2035.00,99.67
2034.00,99.70
2033.00,99.73
2032.00,99.75
2031.00,99.77
2030.00,99.79
2029.00,99.79
2028.00,99.79
2027.00,99.79
2026.00,99.78
2025.00,99.78
2024.00,99.79
2023.00,99.80
2022.00,99.81
2021.00,99.81
2020.00,99.80
2019.00,99.78
2018.00,99.78
2017.00,99.78
2016.00,99.77
2015.00,99.78
2014.00,99.79
2013.00,99.80
2012.00,99.80
2011.00,99.78
2010.00,99.76
2009.00,99.76
2008.00,99.79
2007.00,99.84
2006.00,99.89
2005.00,99.90
2004.00,99.89
2003.00,99.85
2002.00,99.82
2001.00,99.80
2000.00,99.79
1999.00,99.79
1998.00,99.79
1997.00,99.79
1996.00,99.78
1995.00,99.78
1994.00,99.78
1993.00,99.78
1992.00,99.76
1991.00,99.74
1990.00,99.71
1989.00,99.70
1988.00,99.70
1987.00,99.69
1986.00,99.68
1985.00,99.67
1984.00,99.65
1983.00,99.62
1982.00,99.57
1981.00,99.53
1980.00,99.50
1979.00,99.52
1978.00,99.59
1977.00,99.69
1976.00,99.75
1975.00,99.79
1974.00,99.79
1973.00,99.79
1972.00,99.80
1971.00,99.80
1970.00,99.81
1969.00,99.83
1968.00,99.84
1967.00,99.85
1966.00,99.86
1965.00,99.86
1964.00,99.86
1963.00,99.87
1962.00,99.90
1961.00,99.93
1960.00,99.94
1959.00,99.95
1958.00,99.95
1957.00,99.94
1956.00,99.93
1955.00,99.92
1954.00,99.92
1953.00,99.92
1952.00,99.92
1951.00,99.92
1950.00,99.93
1949.00,99.93
1948.00,99.92
1947.00,99.92
1946.00,99.92
1945.00,99.93
1944.00,99.93
1943.00,99.93
1942.00,99.94
1941.00,99.94
1940.00,99.95
1939.00,99.95
1938.00,99.95
1937.00,99.96
1936.00,99.96
1935.00,99.96
1934.00,99.96
1933.00,99.96
1932.00,99.96
1931.00,99.96
1930.00,99.96
1929.00,99.97
1928.00,99.97
1927.00,99.97
1926.00,99.97
1925.00,99.97
1924.00,99.97
1923.00,99.96
1922.00,99.95
1921.00,99.96
1920.00,99.96
1919.00,99.95
1918.00,99.94
1917.00,99.93
1916.00,99.93
1915.00,99.93
1914.00,99.93
1913.00,99.93
1912.00,99.93
1911.00,99.93
1910.00,99.93
1909.00,99.93
1908.00,99.93
1907.00,99.93
1906.00,99.93
1905.00,99.93
1904.00,99.93
1903.00,99.94
1902.00,99.94
1901.00,99.94
1900.00,99.94
1899.00,99.94
1898.00,99.95
1897.00,99.96
1896.00,99.96
1895.00,99.95
1894.00,99.94
1893.00,99.93
1892.00,99.92
1891.00,99.92
1890.00,99.93
1889.00,99.93
1888.00,99.94
1887.00,99.94
1886.00,99.94
1885.00,99.94
1884.00,99.93
1883.00,99.93
1882.00,99.94
1881.00,99.94
1880.00,99.94
1879.00,99.94
1878.00,99.94
1877.00,99.94
1876.00,99.93
1875.00,99.93
1874.00,99.93
1873.00,99.94
1872.00,99.94
1871.00,99.94
1870.00,99.93
1869.00,99.92
1868.00,99.91
1867.00,99.90
1866.00,99.90
1865.00,99.90
1864.00,99.90
1863.00,99.90
1862.00,99.90
1861.00,99.90
1860.00,99.90
1859.00,99.89
1858.00,99.88
1857.00,99.88
1856.00,99.88
1855.00,99.88
1854.00,99.89
1853.00,99.89
1852.00,99.89
1851.00,99.90
1850.00,99.90
1849.00,99.90
1848.00,99.89
1847.00,99.89
1846.00,99.88
1845.00,99.88
1844.00,99.87
1843.00,99.85
1842.00,99.84
1841.00,99.84
1840.00,99.84
1839.00,99.84
1838.00,99.83
1837.00,99.83
1836.00,99.82
1835.00,99.81
1834.00,99.80
1833.00,99.80
1832.00,99.79
1831.00,99.78
1830.00,99.77
1829.00,99.76
1828.00,99.75
1827.00,99.74
1826.00,99.73
1825.00,99.71
1824.00,99.69
1823.00,99.69
1822.00,99.69
1821.00,99.69
1820.00,99.69
1819.00,99.70
1818.00,99.71
1817.00,99.71
1816.00,99.70
1815.00,99.69
1814.00,99.68
1813.00,99.66
1812.00,99.64
1811.00,99.62
1810.00,99.61
1809.00,99.59
1808.00,99.58
1807.00,99.57
1806.00,99.56
1805.00,99.55
1804.00,99.53
1803.00,99.51
1802.00,99.49
1801.00,99.48
1800.00,99.45
1799.00,99.43
1798.00,99.40
1797.00,99.37
1796.00,99.34
1795.00,99.29
1794.00,99.25
1793.00,99.19
1792.00,99.13
1791.00,99.06
1790.00,98.99
1789.00,98.92
1788.00,98.82
1787.00,98.70
1786.00,98.57
1785.00,98.43
1784.00,98.27
1783.00,98.11
1782.00,97.94
1781.00,97.76
1780.00,97.56
1779.00,97.37
1778.00,97.19
1777.00,97.00
1776.00,96.81
1775.00,96.62
1774.00,96.42
1773.00,96.20
1772.00,95.97
1771.00,95.75
1770.00,95.51
1769.00,95.25
1768.00,94.95
1767.00,94.63
1766.00,94.30
1765.00,93.94
1764.00,93.51
1763.00,93.02
1762.00,92.49
1761.00,91.94
1760.00,91.40
1759.00,90.88
1758.00,90.36
1757.00,89.89
1756.00,89.49
1755.00,89.15
1754.00,88.86
1753.00,88.59
1752.00,88.40
1751.00,88.31
1750.00,88.26
1749.00,88.23
1748.00,88.21
1747.00,88.22
1746.00,88.26
1745.00,88.38
1744.00,88.59
1743.00,88.89
1742.00,89.26
1741.00,89.71
1740.00,90.30
1739.00,90.92
1738.00,91.43
1737.00,91.81
1736.00,92.20
1735.00,92.80
1734.00,93.57
1733.00,94.21
1732.00,94.64
1731.00,94.95
1730.00,95.25
1729.00,95.54
1728.00,95.79
1727.00,95.99
1726.00,96.15
1725.00,96.30
1724.00,96.45
1723.00,96.59
1722.00,96.71
1721.00,96.80
1720.00,96.90
1719.00,97.03
1718.00,97.21
1717.00,97.40
1716.00,97.57
1715.00,97.72
1714.00,97.85
1713.00,97.98
1712.00,98.11
1711.00,98.24
1710.00,98.36
1709.00,98.48
1708.00,98.59
1707.00,98.69
1706.00,98.79
1705.00,98.88
1704.00,98.94
1703.00,98.98
1702.00,99.02
1701.00,99.07
1700.00,99.14
1699.00,99.20
1698.00,99.23
1697.00,99.26
1696.00,99.29
1695.00,99.32
1694.00,99.35
1693.00,99.37
1692.00,99.38
1691.00,99.40
1690.00,99.42
1689.00,99.43
1688.00,99.44
1687.00,99.45
1686.00,99.46
1685.00,99.47
1684.00,99.48
1683.00,99.50
1682.00,99.50
1681.00,99.51
1680.00,99.51
1679.00,99.52
1678.00,99.52
1677.00,99.52
1676.00,99.52
1675.00,99.52
1674.00,99.53
1673.00,99.53
1672.00,99.53
1671.00,99.52
1670.00,99.52
1669.00,99.52
1668.00,99.53
1667.00,99.54
1666.00,99.54
1665.00,99.55
1664.00,99.55
1663.00,99.55
1662.00,99.54
1661.00,99.53
1660.00,99.53
1659.00,99.52
1658.00,99.52
1657.00,99.51
1656.00,99.50
1655.00,99.48
1654.00,99.45
1653.00,99.41
1652.00,99.38
1651.00,99.36
1650.00,99.34
1649.00,99.31
1648.00,99.25
1647.00,99.16
1646.00,99.06
1645.00,98.97
1644.00,98.86
1643.00,98.74
1642.00,98.60
1641.00,98.44
1640.00,98.28
1639.00,98.14
1638.00,98.02
1637.00,97.96
1636.00,98.00
1635.00,98.14
1634.00,98.28
1633.00,98.42
1632.00,98.54
1631.00,98.66
1630.00,98.77
1629.00,98.88
1628.00,98.98
1627.00,99.06
1626.00,99.12
1625.00,99.17
1624.00,99.22
1623.00,99.28
1622.00,99.32
1621.00,99.36
1620.00,99.39
1619.00,99.41
1618.00,99.43
1617.00,99.44
1616.00,99.45
1615.00,99.46
1614.00,99.47
1613.00,99.48
1612.00,99.50
1611.00,99.51
1610.00,99.52
1609.00,99.53
1608.00,99.55
1607.00,99.56
1606.00,99.57
1605.00,99.57
1604.00,99.58
1603.00,99.59
1602.00,99.60
1601.00,99.60
1600.00,99.61
1599.00,99.61
1598.00,99.62
1597.00,99.62
1596.00,99.62
1595.00,99.62
1594.00,99.61
1593.00,99.61
1592.00,99.61
1591.00,99.60
1590.00,99.60
1589.00,99.59
1588.00,99.58
1587.00,99.57
1586.00,99.55
1585.00,99.54
1584.00,99.52
1583.00,99.50
1582.00,99.47
1581.00,99.45
1580.00,99.42
1579.00,99.40
1578.00,99.37
1577.00,99.33
1576.00,99.28
1575.00,99.23
1574.00,99.19
1573.00,99.14
1572.00,99.09
1571.00,99.03
1570.00,98.96
1569.00,98.91
1568.00,98.87
1567.00,98.85
1566.00,98.84
1565.00,98.85
1564.00,98.86
1563.00,98.88
1562.00,98.89
1561.00,98.90
1560.00,98.90
1559.00,98.92
1558.00,98.95
1557.00,98.96
1556.00,98.96
1555.00,98.96
1554.00,98.97
1553.00,98.98
1552.00,99.00
1551.00,99.02
1550.00,99.05
1549.00,99.09
1548.00,99.11
1547.00,99.13
1546.00,99.15
1545.00,99.17
1544.00,99.20
1543.00,99.22
1542.00,99.24
1541.00,99.27
1540.00,99.31
1539.00,99.35
1538.00,99.38
1537.00,99.39
1536.00,99.41
1535.00,99.42
1534.00,99.45
1533.00,99.47
1532.00,99.50
1531.00,99.51
1530.00,99.52
1529.00,99.52
1528.00,99.53
1527.00,99.53
1526.00,99.54
1525.00,99.55
1524.00,99.56
1523.00,99.56
1522.00,99.56
1521.00,99.56
1520.00,99.56
1519.00,99.57
1518.00,99.58
1517.00,99.58
1516.00,99.58
1515.00,99.58
1514.00,99.59
1513.00,99.58
1512.00,99.58
1511.00,99.58
1510.00,99.59
1509.00,99.59
1508.00,99.59
1507.00,99.60
1506.00,99.60
1505.00,99.60
1504.00,99.61
1503.00,99.61
1502.00,99.61
1501.00,99.60
1500.00,99.60
1499.00,99.59
1498.00,99.59
1497.00,99.59
1496.00,99.58
1495.00,99.59
1494.00,99.59
1493.00,99.58
1492.00,99.57
1491.00,99.56
1490.00,99.55
1489.00,99.53
1488.00,99.52
1487.00,99.51
1486.00,99.50
1485.00,99.48
1484.00,99.46
1483.00,99.44
1482.00,99.41
1481.00,99.38
1480.00,99.34
1479.00,99.30
1478.00,99.24
1477.00,99.16
1476.00,99.06
1475.00,98.94
1474.00,98.81
1473.00,98.68
1472.00,98.58
1471.00,98.51
1470.00,98.44
1469.00,98.35
1468.00,98.22
1467.00,98.06
1466.00,97.83
1465.00,97.55
1464.00,97.26
1463.00,96.99
1462.00,96.75
1461.00,96.52
1460.00,96.29
1459.00,96.07
1458.00,95.87
1457.00,95.72
1456.00,95.63
1455.00,95.58
1454.00,95.53
1453.00,95.50
1452.00,95.50
1451.00,95.53
1450.00,95.58
1449.00,95.66
1448.00,95.79
1447.00,95.96
1446.00,96.14
1445.00,96.33
1444.00,96.55
1443.00,96.80
1442.00,97.07
1441.00,97.34
1440.00,97.57
1439.00,97.79
1438.00,98.00
1437.00,98.25
1436.00,98.48
1435.00,98.64
1434.00,98.74
1433.00,98.81
1432.00,98.88
1431.00,98.95
1430.00,99.00
1429.00,99.04
1428.00,99.08
1427.00,99.10
1426.00,99.12
1425.00,99.14
1424.00,99.16
1423.00,99.18
1422.00,99.19
1421.00,99.20
1420.00,99.21
1419.00,99.23
1418.00,99.24
1417.00,99.25
1416.00,99.26
1415.00,99.27
1414.00,99.27
1413.00,99.27
1412.00,99.27
1411.00,99.27
1410.00,99.27
1409.00,99.26
1408.00,99.25
1407.00,99.23
1406.00,99.21
1405.00,99.19
1404.00,99.17
1403.00,99.14
1402.00,99.09
1401.00,99.03
1400.00,98.95
1399.00,98.85
1398.00,98.73
1397.00,98.60
1396.00,98.44
1395.00,98.24
1394.00,98.03
1393.00,97.80
1392.00,97.57
1391.00,97.32
1390.00,97.05
1389.00,96.77
1388.00,96.49
1387.00,96.26
1386.00,96.11
1385.00,96.04
1384.00,96.02
1383.00,96.05
1382.00,96.14
1381.00,96.29
1380.00,96.48
1379.00,96.71
1378.00,96.94
1377.00,97.12
1376.00,97.23
1375.00,97.27
1374.00,97.23
1373.00,97.13
1372.00,97.00
1371.00,96.85
1370.00,96.72
1369.00,96.59
1368.00,96.48
1367.00,96.36
1366.00,96.23
1365.00,96.08
1364.00,95.91
1363.00,95.73
1362.00,95.55
1361.00,95.39
1360.00,95.27
1359.00,95.20
1358.00,95.19
1357.00,95.24
1356.00,95.37
1355.00,95.56
1354.00,95.79
1353.00,96.03
1352.00,96.28
1351.00,96.53
1350.00,96.76
1349.00,96.99
1348.00,97.19
1347.00,97.37
1346.00,97.54
1345.00,97.69
1344.00,97.82
1343.00,97.93
1342.00,98.02
1341.00,98.11
1340.00,98.20
1339.00,98.28
1338.00,98.36
1337.00,98.42
1336.00,98.47
1335.00,98.51
1334.00,98.55
1333.00,98.58
1332.00,98.61
1331.00,98.63
1330.00,98.65
1329.00,98.66
1328.00,98.67
1327.00,98.68
1326.00,98.68
1325.00,98.69
1324.00,98.69
1323.00,98.70
1322.00,98.69
1321.00,98.69
1320.00,98.69
1319.00,98.69
1318.00,98.68
1317.00,98.67
1316.00,98.65
1315.00,98.63
1314.00,98.61
1313.00,98.59
1312.00,98.57
1311.00,98.54
1310.00,98.51
1309.00,98.47
1308.00,98.43
1307.00,98.39
1306.00,98.37
1305.00,98.36
1304.00,98.36
1303.00,98.38
1302.00,98.40
1301.00,98.43
1300.00,98.45
1299.00,98.47
1298.00,98.49
1297.00,98.50
1296.00,98.52
1295.00,98.53
1294.00,98.55
1293.00,98.58
1292.00,98.61
1291.00,98.64
1290.00,98.67
1289.00,98.69
1288.00,98.70
1287.00,98.69
1286.00,98.67
1285.00,98.63
1284.00,98.58
1283.00,98.53
1282.00,98.47
1281.00,98.41
1280.00,98.35
1279.00,98.28
1278.00,98.22
1277.00,98.15
1276.00,98.09
1275.00,98.02
1274.00,97.97
1273.00,97.92
1272.00,97.87
1271.00,97.84
1270.00,97.81
1269.00,97.80
1268.00,97.80
1267.00,97.82
1266.00,97.85
1265.00,97.87
1264.00,97.89
1263.00,97.91
1262.00,97.94
1261.00,97.97
1260.00,98.00
1259.00,98.04
1258.00,98.07
1257.00,98.10
1256.00,98.12
1255.00,98.14
1254.00,98.15
1253.00,98.14
1252.00,98.12
1251.00,98.10
1250.00,98.09
1249.00,98.10
1248.00,98.12
1247.00,98.16
1246.00,98.20
1245.00,98.22
1244.00,98.24
1243.00,98.24
1242.00,98.24
1241.00,98.23
1240.00,98.21
1239.00,98.19
1238.00,98.15
1237.00,98.10
1236.00,98.04
1235.00,97.96
1234.00,97.88
1233.00,97.78
1232.00,97.67
1231.00,97.54
1230.00,97.39
1229.00,97.22
1228.00,97.02
1227.00,96.80
1226.00,96.56
1225.00,96.30
1224.00,96.03
1223.00,95.73
1222.00,95.42
1221.00,95.09
1220.00,94.74
1219.00,94.38
1218.00,94.02
1217.00,93.65
1216.00,93.28
1215.00,92.94
1214.00,92.62
1213.00,92.35
1212.00,92.14
1211.00,92.00
1210.00,91.93
1209.00,91.92
1208.00,91.95
1207.00,92.02
1206.00,92.12
1205.00,92.22
1204.00,92.31
1203.00,92.39
1202.00,92.46
1201.00,92.50
1200.00,92.50
1199.00,92.49
1198.00,92.44
1197.00,92.37
1196.00,92.27
1195.00,92.15
1194.00,92.01
1193.00,91.85
1192.00,91.67
1191.00,91.48
1190.00,91.29
1189.00,91.08
1188.00,90.87
1187.00,90.67
1186.00,90.48
1185.00,90.32
1184.00,90.19
1183.00,90.13
1182.00,90.15
1181.00,90.27
1180.00,90.49
1179.00,90.84
1178.00,91.28
1177.00,91.80
1176.00,92.37
1175.00,92.97
1174.00,93.56
1173.00,94.13
1172.00,94.66
1171.00,95.14
1170.00,95.57
1169.00,95.95
1168.00,96.27
1167.00,96.55
1166.00,96.78
1165.00,96.97
1164.00,97.13
1163.00,97.26
1162.00,97.37
1161.00,97.45
1160.00,97.52
1159.00,97.57
1158.00,97.61
1157.00,97.62
1156.00,97.62
1155.00,97.61
1154.00,97.58
1153.00,97.53
1152.00,97.45
1151.00,97.35
1150.00,97.22
1149.00,97.04
1148.00,96.83
1147.00,96.57
1146.00,96.26
1145.00,95.91
1144.00,95.52
1143.00,95.11
1142.00,94.68
1141.00,94.23
1140.00,93.78
1139.00,93.33
1138.00,92.88
1137.00,92.46
1136.00,92.07
1135.00,91.74
1134.00,91.48
1133.00,91.29
1132.00,91.18
1131.00,91.14
1130.00,91.18
1129.00,91.27
1128.00,91.42
1127.00,91.62
1126.00,91.86
1125.00,92.12
1124.00,92.38
1123.00,92.63
1122.00,92.87
1121.00,93.06
1120.00,93.22
1119.00,93.34
1118.00,93.42
1117.00,93.46
1116.00,93.44
1115.00,93.37
1114.00,93.27
1113.00,93.12
1112.00,92.94
1111.00,92.74
1110.00,92.53
1109.00,92.31
1108.00,92.09
1107.00,91.88
1106.00,91.67
1105.00,91.46
1104.00,91.25
1103.00,91.04
1102.00,90.85
1101.00,90.65
1100.00,90.46
1099.00,90.28
1098.00,90.11
1097.00,89.95
1096.00,89.79
1095.00,89.65
1094.00,89.52
1093.00,89.40
1092.00,89.28
1091.00,89.18
1090.00,89.11
1089.00,89.07
1088.00,89.04
1087.00,89.05
1086.00,89.08
1085.00,89.14
1084.00,89.22
1083.00,89.35
1082.00,89.51
1081.00,89.70
1080.00,89.91
1079.00,90.15
1078.00,90.42
1077.00,90.70
1076.00,91.00
1075.00,91.32
1074.00,91.65
1073.00,91.99
1072.00,92.33
1071.00,92.67
1070.00,93.01
1069.00,93.33
1068.00,93.62
1067.00,93.90
1066.00,94.14
1065.00,94.34
1064.00,94.49
1063.00,94.60
1062.00,94.66
1061.00,94.67
1060.00,94.62
1059.00,94.51
1058.00,94.37
1057.00,94.19
1056.00,93.99
1055.00,93.76
1054.00,93.51
1053.00,93.23
1052.00,92.94
1051.00,92.65
1050.00,92.35
1049.00,92.05
1048.00,91.77
1047.00,91.52
1046.00,91.31
1045.00,91.17
1044.00,91.10
1043.00,91.11
1042.00,91.20
1041.00,91.35
1040.00,91.55
1039.00,91.81
1038.00,92.10
1037.00,92.43
1036.00,92.78
1035.00,93.13
1034.00,93.47
1033.00,93.79
1032.00,94.08
1031.00,94.33
1030.00,94.56
1029.00,94.76
1028.00,94.94
1027.00,95.11
1026.00,95.27
1025.00,95.42
1024.00,95.57
1023.00,95.72
1022.00,95.88
1021.00,96.04
1020.00,96.20
1019.00,96.36
1018.00,96.51
1017.00,96.65
1016.00,96.78
1015.00,96.92
1014.00,97.06
1013.00,97.18
1012.00,97.29
1011.00,97.39
1010.00,97.49
1009.00,97.58
1008.00,97.66
1007.00,97.74
1006.00,97.81
1005.00,97.88
1004.00,97.94
1003.00,97.99
1002.00,98.03
1001.00,98.08
1000.00,98.13
999.00,98.17
998.00,98.21
997.00,98.26
996.00,98.29
995.00,98.33
994.00,98.37
993.00,98.41
992.00,98.44
991.00,98.46
990.00,98.49
989.00,98.51
988.00,98.54
987.00,98.57
986.00,98.60
985.00,98.63
984.00,98.66
983.00,98.68
982.00,98.71
981.00,98.73
980.00,98.75
979.00,98.76
978.00,98.77
977.00,98.79
976.00,98.80
975.00,98.82
974.00,98.84
973.00,98.86
972.00,98.88
971.00,98.90
970.00,98.91
969.00,98.92
968.00,98.92
967.00,98.91
966.00,98.91
965.00,98.90
964.00,98.88
963.00,98.85
962.00,98.81
961.00,98.76
960.00,98.71
959.00,98.67
958.00,98.64
957.00,98.62
956.00,98.62
955.00,98.63
954.00,98.65
953.00,98.68
952.00,98.71
951.00,98.73
950.00,98.75
949.00,98.76
948.00,98.77
947.00,98.78
946.00,98.80
945.00,98.81
944.00,98.83
943.00,98.84
942.00,98.86
941.00,98.88
940.00,98.90
939.00,98.91
938.00,98.92
937.00,98.91
936.00,98.90
935.00,98.88
934.00,98.86
933.00,98.84
932.00,98.80
931.00,98.75
930.00,98.71
929.00,98.65
928.00,98.59
927.00,98.51
926.00,98.43
925.00,98.36
924.00,98.31
923.00,98.28
922.00,98.27
921.00,98.29
920.00,98.32
919.00,98.37
918.00,98.42
917.00,98.47
916.00,98.53
915.00,98.59
914.00,98.64
913.00,98.68
912.00,98.72
911.00,98.75
910.00,98.77
909.00,98.79
908.00,98.80
907.00,98.82
906.00,98.83
905.00,98.85
904.00,98.86
903.00,98.87
902.00,98.87
901.00,98.88
900.00,98.88
899.00,98.89
898.00,98.89
897.00,98.89
896.00,98.88
895.00,98.88
894.00,98.88
893.00,98.88
892.00,98.89
891.00,98.91
890.00,98.92
889.00,98.91
888.00,98.90
887.00,98.88
886.00,98.84
885.00,98.79
884.00,98.71
883.00,98.61
882.00,98.47
881.00,98.30
880.00,98.10
879.00,97.86
878.00,97.60
877.00,97.34
876.00,97.07
875.00,96.82
874.00,96.61
873.00,96.45
872.00,96.37
871.00,96.37
870.00,96.45
869.00,96.58
868.00,96.74
867.00,96.91
866.00,97.08
865.00,97.24
864.00,97.39
863.00,97.54
862.00,97.68
861.00,97.82
860.00,97.96
859.00,98.10
858.00,98.24
857.00,98.37
856.00,98.49
855.00,98.59
854.00,98.66
853.00,98.71
852.00,98.74
851.00,98.76
850.00,98.78
849.00,98.80
848.00,98.82
847.00,98.86
846.00,98.91
845.00,98.96
844.00,99.01
843.00,99.06
842.00,99.11
841.00,99.15
840.00,99.17
839.00,99.20
838.00,99.22
837.00,99.24
836.00,99.25
835.00,99.27
834.00,99.28
833.00,99.29
832.00,99.30
831.00,99.32
830.00,99.33
829.00,99.34
828.00,99.35
827.00,99.36
826.00,99.36
825.00,99.35
824.00,99.34
823.00,99.35
822.00,99.36
821.00,99.37
820.00,99.37
819.00,99.37
818.00,99.38
817.00,99.39
816.00,99.40
815.00,99.40
814.00,99.40
813.00,99.40
812.00,99.40
811.00,99.39
810.00,99.38
809.00,99.38
808.00,99.37
807.00,99.37
806.00,99.38
805.00,99.39
804.00,99.39
803.00,99.39
802.00,99.38
801.00,99.38
800.00,99.38
799.00,99.39
798.00,99.39
797.00,99.38
796.00,99.36
795.00,99.34
794.00,99.33
793.00,99.32
792.00,99.29
791.00,99.27
790.00,99.25
789.00,99.23
788.00,99.19
787.00,99.15
786.00,99.11
785.00,99.07
784.00,99.02
783.00,98.98
782.00,98.94
781.00,98.90
780.00,98.86
779.00,98.83
778.00,98.79
777.00,98.76
776.00,98.71
775.00,98.66
774.00,98.61
773.00,98.55
772.00,98.48
771.00,98.39
770.00,98.29
769.00,98.19
768.00,98.08
767.00,97.95
766.00,97.82
765.00,97.65
764.00,97.45
763.00,97.21
762.00,96.93
761.00,96.61
760.00,96.26
759.00,95.90
758.00,95.57
757.00,95.32
756.00,95.19
755.00,95.19
754.00,95.30
753.00,95.50
752.00,95.75
751.00,96.03
750.00,96.30
749.00,96.54
748.00,96.73
747.00,96.87
746.00,96.98
745.00,97.06
744.00,97.13
743.00,97.18
742.00,97.24
741.00,97.29
740.00,97.35
739.00,97.41
738.00,97.48
737.00,97.54
736.00,97.62
735.00,97.71
734.00,97.81
733.00,97.92
732.00,98.02
731.00,98.10
730.00,98.16
729.00,98.20
728.00,98.22
727.00,98.22
726.00,98.19
725.00,98.14
724.00,98.07
723.00,97.98
722.00,97.87
721.00,97.75
720.00,97.63
719.00,97.52
718.00,97.43
717.00,97.36
716.00,97.30
715.00,97.24
714.00,97.18
713.00,97.13
712.00,97.08
711.00,97.03
710.00,96.98
709.00,96.94
708.00,96.89
707.00,96.83
706.00,96.76
705.00,96.69
704.00,96.61
703.00,96.55
702.00,96.51
701.00,96.47
700.00,96.44
699.00,96.40
698.00,96.35
697.00,96.30
696.00,96.27
695.00,96.24
694.00,96.22
693.00,96.20
692.00,96.19
691.00,96.17
690.00,96.15
689.00,96.14
688.00,96.14
687.00,96.15
686.00,96.17
685.00,96.19
684.00,96.21
683.00,96.24
682.00,96.29
681.00,96.35
680.00,96.43
679.00,96.51
678.00,96.58
677.00,96.63
676.00,96.67
675.00,96.72
674.00,96.78
673.00,96.84
672.00,96.89
671.00,96.92
670.00,96.94
669.00,96.98
668.00,97.06
667.00,97.17
666.00,97.24
665.00,97.29
664.00,97.31
663.00,97.32
662.00,97.34
661.00,97.37
660.00,97.42
659.00,97.47
658.00,97.51
657.00,97.54
656.00,97.58
655.00,97.62
654.00,97.66
653.00,97.69
652.00,97.71
651.00,97.74
650.00,97.78
